The data in this file is a subset of EMG recording of lower limb muscles during VO2max test.
Courtesy of INSEP Research Department (http://www.insep.fr)

Time	Vastus Lateralis
s	mV
	17 km/h running
4	-34.3323
4.0005	-28.2898
4.001	-27.3743
4.0015	-32.7759
4.002	-25.8179
4.0025	-31.2195
4.003	-24.9023
4.0035	-30.6702
4.004	-30.8533
4.0045	-34.1492
4.005	-32.4097
4.0055	-28.656
4.006	-27.7405
4.0065	-32.135
4.007	-37.8113
4.0075	-26.4587
4.008	-39.6423
4.0085	-35.9802
4.009	-28.1067
4.0095	-25.7263
4.01	-26.7334
4.0105	-31.4026
4.011	-27.0081
4.0115	-32.135
4.012	-28.2898
4.0125	-31.311
4.013	-32.6843
4.0135	-30.7617
4.014	-36.1633
4.0145	-31.9519
4.015	-32.5012
4.0155	-32.135
4.016	-25.7263
4.0165	-30.4871
4.017	-38.9099
4.0175	-31.311
4.018	-37.8113
4.0185	-34.1492
4.019	-32.3181
4.0195	-38.3606
4.02	-30.8533
4.0205	-32.5012
4.021	-28.656
4.0215	-30.2124
4.022	-27.832
4.0225	-26.1841
4.023	-29.5715
4.0235	-26.001
4.024	-30.2124
4.0245	-26.0925
4.025	-33.6914
4.0255	-33.783
4.026	-31.9519
4.0265	-33.1421
4.027	-30.7617
4.0275	-41.8396
4.028	-45.1355
4.0285	-28.2898
4.029	-28.1067
4.0295	-32.4097
4.03	-33.5083
4.0305	-36.9873
4.031	-32.4097
4.0315	-35.3394
4.032	-35.7056
4.0325	-32.3181
4.033	-37.8113
4.0335	-42.3889
4.034	-36.0718
4.0345	-38.8184
4.035	-35.9802
4.0355	-35.9802
4.036	-40.1917
4.0365	-43.6707
4.037	-45.1355
4.0375	-41.4734
4.038	-40.9241
4.0385	-40.9241
4.039	-35.5225
4.0395	-31.9519
4.04	-38.4521
4.0405	-38.9099
4.041	-39.093
4.0415	-40.8325
4.042	-37.7197
4.0425	-38.7268
4.043	-43.2129
4.0435	-37.5366
4.044	-39.3677
4.0445	-41.1072
4.045	-39.5508
4.0455	-51.3611
4.046	-39.2761
4.0465	-44.3115
4.047	-39.917
4.0475	-44.1284
4.048	-40.5579
4.0485	-47.9736
4.049	-42.7551
4.0495	-51.8188
4.05	-47.0581
4.0505	-46.4172
4.051	-42.7551
4.0515	-43.5791
4.052	-41.1987
4.0525	-43.4875
4.053	-41.2903
4.0535	-35.7056
4.054	-38.3606
4.0545	-36.5295
4.055	-34.0576
4.0555	-40.5579
4.056	-42.3889
4.0565	-33.783
4.057	-32.135
4.0575	-34.3323
4.058	-31.9519
4.0585	-32.135
4.059	-25.177
4.0595	-22.4304
4.06	-24.9939
4.0605	-26.3672
4.061	-28.0151
4.0615	-23.9868
4.062	-22.2473
4.0625	-24.0784
4.063	-24.9939
4.0635	-27.5574
4.064	-23.2544
4.0645	-27.5574
4.065	-30.4871
4.0655	-25.5432
4.066	-25.7263
4.0665	-26.5503
4.067	-23.7122
4.0675	-25.9094
4.068	-29.9377
4.0685	-20.5994
4.069	-30.5786
4.0695	-20.9656
4.07	-21.0571
4.0705	-26.7334
4.071	-24.6277
4.0715	-29.0222
4.072	-26.825
4.0725	-21.5149
4.073	-31.311
4.0735	-32.5012
4.074	-23.4375
4.0745	-18.3105
4.075	-18.9514
4.0755	-18.5852
4.076	-21.1487
4.0765	-26.1841
4.077	-18.0359
4.0775	-16.571
4.078	-29.0222
4.0785	-24.8108
4.079	-26.4587
4.0795	-19.1345
4.08	-25.177
4.0805	-20.9656
4.081	-13.916
4.0815	-7.9651
4.082	-23.1628
4.0825	-13.6414
4.083	-15.3809
4.0835	-11.4441
4.084	-18.3105
4.0845	-15.9302
4.085	-6.958
4.0855	-9.613
4.086	-8.4229
4.0865	-10.8032
4.087	-16.3879
4.0875	-8.8806
4.088	-6.5918
4.0885	-7.782
4.089	0.2747
4.0895	-14.8315
4.09	-10.7117
4.0905	-11.4441
4.091	-17.6697
4.0915	-9.2468
4.092	-7.782
4.0925	-12.1765
4.093	-7.782
4.0935	-12.8174
4.094	-1.2817
4.0945	-1.8311
4.095	1.5564
4.0955	3.9368
4.096	3.9368
4.0965	0.1831
4.097	-9.2468
4.0975	-0.1831
4.098	-0.7324
4.0985	-4.303
4.099	-7.0496
4.0995	-3.7537
4.1	-2.8381
4.1005	-1.5564
4.101	4.8523
4.1015	-4.3945
4.102	-1.7395
4.1025	-3.9368
4.103	-3.9368
4.1035	-4.4861
4.104	-7.2327
4.1045	-8.1482
4.105	-7.1411
4.1055	3.479
4.106	-1.9226
4.1065	-3.0212
4.107	4.8523
4.1075	-6.5002
4.108	-6.0425
4.1085	3.5706
4.109	2.2888
4.1095	1.6479
4.11	6.0425
4.1105	-4.6692
4.111	-1.4648
4.1115	-8.4229
4.112	0.6409
4.1125	-7.9651
4.113	-4.6692
4.1135	0.0916
4.114	2.4719
4.1145	3.7537
4.115	-0.5493
4.1155	2.5635
4.116	2.0142
4.1165	-1.3733
4.117	4.7607
4.1175	-0.4578
4.118	7.0496
4.1185	-1.5564
4.119	-2.8381
4.1195	-3.3875
4.12	8.2397
4.1205	12.8174
4.121	10.3455
4.1215	8.9722
4.122	6.8665
4.1225	9.3384
4.123	-3.3875
4.1235	2.8381
4.124	4.303
4.1245	10.9863
4.125	9.2468
4.1255	8.1482
4.126	13.4583
4.1265	15.7471
4.127	10.5286
4.1275	13.1836
4.128	12.5427
4.1285	15.4724
4.129	16.3879
4.1295	14.0076
4.13	11.7188
4.1305	11.6272
4.131	15.564
4.1315	11.261
4.132	15.8386
4.1325	10.1624
4.133	14.8315
4.1335	16.2048
4.134	14.74
4.1345	13.2751
4.135	18.9514
4.1355	13.092
4.136	15.3809
4.1365	7.8735
4.137	16.2048
4.1375	15.1978
4.138	11.0779
4.1385	2.8381
4.139	7.3242
4.1395	17.8528
4.14	14.9231
4.1405	10.1624
4.141	8.606
4.1415	9.2468
4.142	14.4653
4.1425	10.8032
4.143	6.7749
4.1435	2.8381
4.144	8.8806
4.1445	0.5493
4.145	3.5706
4.1455	1.3733
4.146	10.3455
4.1465	8.6975
4.147	10.3455
4.1475	9.7961
4.148	8.1482
4.1485	8.2397
4.149	3.3875
4.1495	5.2185
4.15	16.2048
4.1505	15.1062
4.151	17.7612
4.1515	12.9089
4.152	10.0708
4.1525	13.7329
4.153	18.4021
4.1535	18.7683
4.154	17.0288
4.1545	14.5569
4.155	25.7263
4.1555	16.0217
4.156	13.7329
4.1565	11.4441
4.157	7.5989
4.1575	0.824
4.158	7.2327
4.1585	11.1694
4.159	14.9231
4.1595	10.8948
4.16	17.3035
4.1605	12.6343
4.161	14.2822
4.1615	4.0283
4.162	7.1411
4.1625	10.3455
4.163	13.4583
4.1635	18.5852
4.164	12.5427
4.1645	15.2893
4.165	10.9863
4.1655	20.05
4.166	8.1482
4.1665	21.3318
4.167	14.0991
4.1675	15.0146
4.168	11.9934
4.1685	12.3596
4.169	19.5007
4.1695	12.5427
4.17	9.9792
4.1705	12.6343
4.171	13.4583
4.1715	13.4583
4.172	16.0217
4.1725	25.5432
4.173	23.5291
4.1735	27.6489
4.174	16.3879
4.1745	15.6555
4.175	14.1907
4.1755	19.6838
4.176	11.6272
4.1765	22.522
4.177	23.5291
4.1775	20.3247
4.178	25.177
4.1785	25.9094
4.179	22.4304
4.1795	28.1982
4.18	26.9165
4.1805	28.2898
4.181	21.5149
4.1815	28.5645
4.182	24.4446
4.1825	20.1416
4.183	20.05
4.1835	16.571
4.184	20.5994
4.1845	24.353
4.185	17.4866
4.1855	25.2686
4.186	20.05
4.1865	13.916
4.187	21.698
4.1875	22.4304
4.188	21.8811
4.1885	18.219
4.189	20.9656
4.1895	19.7754
4.19	20.3247
4.1905	22.0642
4.191	26.5503
4.1915	28.5645
4.192	28.2898
4.1925	23.1628
4.193	23.4375
4.1935	22.9797
4.194	18.4937
4.1945	23.1628
4.195	22.2473
4.1955	22.522
4.196	21.8811
4.1965	18.6768
4.197	18.5852
4.1975	15.4724
4.198	31.4941
4.1985	29.2969
4.199	27.3743
4.1995	37.262
4.2	25.8179
4.2005	26.2756
4.201	31.311
4.2015	25.177
4.202	28.1067
4.2025	22.9797
4.203	24.0784
4.2035	19.6838
4.204	25.7263
4.2045	26.0925
4.205	21.698
4.2055	23.8953
4.206	22.0642
4.2065	23.5291
4.207	18.0359
4.2075	18.9514
4.208	14.9231
4.2085	13.4583
4.209	24.2615
4.2095	27.3743
4.21	18.3105
4.2105	22.3389
4.211	28.1982
4.2115	25.7263
4.212	15.564
4.2125	18.5852
4.213	19.043
4.2135	18.5852
4.214	21.5149
4.2145	13.4583
4.215	17.3035
4.2155	20.2332
4.216	15.6555
4.2165	14.74
4.217	18.9514
4.2175	10.1624
4.218	19.3176
4.2185	23.4375
4.219	12.5427
4.2195	22.6135
4.22	14.1907
4.2205	19.3176
4.221	15.7471
4.2215	15.7471
4.222	11.5356
4.2225	19.6838
4.223	21.9727
4.2235	17.7612
4.224	20.5078
4.2245	18.1274
4.225	22.1558
4.2255	21.4233
4.226	16.7542
4.2265	16.9373
4.227	18.9514
4.2275	14.4653
4.228	15.6555
4.2285	15.4724
4.229	13.8245
4.2295	20.2332
4.23	19.1345
4.2305	19.7754
4.231	19.9585
4.2315	13.4583
4.232	15.0146
4.2325	14.8315
4.233	9.4299
4.2335	9.1553
4.234	12.3596
4.2345	7.2327
4.235	8.8806
4.2355	9.3384
4.236	6.7749
4.2365	8.606
4.237	14.9231
4.2375	15.2893
4.238	17.5781
4.2385	15.6555
4.239	28.4729
4.2395	28.3813
4.24	25.0854
4.2405	36.8042
4.241	31.0364
4.2415	26.4587
4.242	33.1421
4.2425	36.7126
4.243	32.5012
4.2435	32.5928
4.244	31.4026
4.2445	30.7617
4.245	23.9868
4.2455	25.5432
4.246	21.6064
4.2465	23.3459
4.247	17.4866
4.2475	9.0637
4.248	7.1411
4.2485	11.1694
4.249	2.8381
4.2495	5.127
4.25	14.4653
4.2505	1.9226
4.251	-2.2888
4.2515	-0.6409
4.252	-0.7324
4.2525	7.9651
4.253	7.4158
4.2535	7.8735
4.254	1.9226
4.2545	7.6904
4.255	14.0076
4.2555	10.0708
4.256	8.0566
4.2565	15.1062
4.257	22.2473
4.2575	13.6414
4.258	6.7749
4.2585	10.1624
4.259	7.5989
4.2595	22.6135
4.26	23.0713
4.2605	30.3955
4.261	23.8953
4.2615	25.4517
4.262	20.05
4.2625	14.1907
4.263	17.1204
4.2635	6.8665
4.264	5.6763
4.2645	1.7395
4.265	-2.655
4.2655	1.7395
4.266	-4.8523
4.2665	-10.0708
4.267	-17.6697
4.2675	-0.2747
4.268	-2.0142
4.2685	2.1057
4.269	11.4441
4.2695	15.1062
4.27	18.0359
4.2705	12.6343
4.271	26.001
4.2715	26.5503
4.272	32.7759
4.2725	14.9231
4.273	0.824
4.2735	-5.9509
4.274	-6.5002
4.2745	1.6479
4.275	-1.1902
4.2755	4.6692
4.276	20.9656
4.2765	32.8674
4.277	47.2412
4.2775	48.5229
4.278	51.5442
4.2785	41.6565
4.279	36.8042
4.2795	33.8745
4.28	19.9585
4.2805	13.5498
4.281	0.4578
4.2815	-1.3733
4.282	-14.2822
4.2825	-23.2544
4.283	-19.8669
4.2835	-14.3738
4.284	-12.8174
4.2845	-0.5493
4.285	-2.655
4.2855	11.3525
4.286	24.2615
4.2865	18.1274
4.287	37.6282
4.2875	27.0081
4.288	20.2332
4.2885	15.8386
4.289	-2.3804
4.2895	-8.3313
4.29	-1.6479
4.2905	4.4861
4.291	1.9226
4.2915	1.5564
4.292	-12.6343
4.2925	-9.7961
4.293	-10.3455
4.2935	-2.1057
4.294	8.1482
4.2945	13.092
4.295	28.2898
4.2955	37.4451
4.296	49.9878
4.2965	63.8123
4.297	79.3762
4.2975	81.8481
4.298	76.4465
4.2985	69.8547
4.299	61.5234
4.2995	48.8892
4.3	35.0647
4.3005	24.8108
4.301	22.9797
4.3015	28.656
4.302	42.3889
4.3025	49.7131
4.303	55.6641
4.3035	53.9246
4.304	32.5928
4.3045	5.7678
4.305	-14.5569
4.3055	-17.3035
4.306	-43.3044
4.3065	-64.27
4.307	-55.0232
4.3075	-50.9033
4.308	-36.5295
4.3085	-5.0354
4.309	-9.0637
4.3095	-10.0708
4.31	4.1199
4.3105	17.4866
4.311	23.3459
4.3115	35.614
4.312	40.4663
4.3125	49.4385
4.313	61.4319
4.3135	70.9534
4.314	63.0798
4.3145	55.3894
4.315	51.3611
4.3155	50.9033
4.316	58.8684
4.3165	68.7561
4.317	76.9043
4.3175	74.2493
4.318	74.6155
4.3185	73.8831
4.319	66.5588
4.3195	62.5305
4.32	65.4602
4.3205	74.6155
4.321	85.4187
4.3215	79.3762
4.322	81.7566
4.3225	85.6934
4.323	88.0737
4.3235	87.616
4.324	83.313
4.3245	72.6929
4.325	63.8123
4.3255	56.6711
4.326	47.699
4.3265	46.5088
4.327	22.6135
4.3275	17.5781
4.328	17.7612
4.3285	6.6833
4.329	8.1482
4.3295	-0.4578
4.33	-10.2539
4.3305	-14.5569
4.331	-4.8523
4.3315	-0.1831
4.332	2.0142
4.3325	1.4648
4.333	7.0496
4.3335	23.0713
4.334	39.7339
4.3345	40.4663
4.335	39.3677
4.3355	31.4026
4.336	29.9377
4.3365	32.3181
4.337	39.6423
4.3375	39.093
4.338	43.396
4.3385	32.6843
4.339	31.5857
4.3395	31.2195
4.34	42.2058
4.3405	37.262
4.341	40.1917
4.3415	45.6848
4.342	30.9448
4.3425	34.8816
4.343	20.5994
4.3435	24.9023
4.344	35.5225
4.3445	27.3743
4.345	29.7546
4.3455	13.4583
4.346	8.4229
4.3465	-6.0425
4.347	0.5493
4.3475	24.6277
4.348	5.7678
4.3485	-15.8386
4.349	-25.7263
4.3495	-42.2974
4.35	-57.6782
4.3505	-77.4536
4.351	-75.3479
4.3515	-82.489
4.352	-73.3337
4.3525	-63.6292
4.353	-33.4167
4.3535	-15.1978
4.354	-6.5002
4.3545	6.0425
4.355	2.2888
4.3555	-15.1978
4.356	-25.3601
4.3565	-29.8462
4.357	-33.4167
4.3575	-39.7339
4.358	-49.1638
4.3585	-54.8401
4.359	-63.1714
4.3595	-49.8047
4.36	-45.8679
4.3605	-43.1213
4.361	-52.0935
4.3615	-45.1355
4.362	-19.6838
4.3625	8.6975
4.363	38.8184
4.3635	70.9534
4.364	87.0667
4.3645	98.4192
4.365	96.4966
4.3655	91.3696
4.366	82.489
4.3665	68.3899
4.367	42.7551
4.3675	-1.4648
4.368	-46.6003
4.3685	-77.179
4.369	-85.7849
4.3695	-94.3909
4.37	-75.8972
4.3705	-68.0237
4.371	-64.5447
4.3715	-65.2771
4.372	-57.5867
4.3725	-48.7061
4.373	-28.5645
4.3735	-10.5286
4.374	8.9722
4.3745	12.9089
4.375	-1.9226
4.3755	-40.4663
4.376	-95.9473
4.3765	-138.3362
4.377	-170.5627
4.3775	-201.1414
4.378	-196.3806
4.3785	-191.0706
4.379	-189.0564
4.3795	-166.626
4.38	-138.6108
4.3805	-128.6316
4.381	-111.4197
4.3815	-107.7576
4.382	-110.7788
4.3825	-137.146
4.383	-147.7661
4.3835	-162.8723
4.384	-178.1616
4.3845	-144.7449
4.385	-106.0181
4.3855	-65.918
4.386	-31.5857
4.3865	18.219
4.387	39.5508
4.3875	51.6357
4.388	83.5876
4.3885	75.2563
4.389	97.1375
4.3895	96.3135
4.39	75.8057
4.3905	54.1992
4.391	39.6423
4.3915	32.5012
4.392	39.917
4.3925	49.7131
4.393	44.1284
4.3935	27.1912
4.394	26.6418
4.3945	43.9453
4.395	47.9736
4.3955	23.8953
4.396	-34.9731
4.3965	-90.9119
4.397	-141.8152
4.3975	-194.0918
4.398	-235.9314
4.3985	-294.5251
4.399	-305.0537
4.3995	-319.8853
4.4	-289.032
4.4005	-238.9526
4.401	-190.0635
4.4015	-142.5476
4.402	-71.5942
4.4025	-9.4299
4.403	21.8811
4.4035	9.7961
4.404	1.5564
4.4045	-1.6479
4.405	19.3176
4.4055	39.6423
4.406	97.5037
4.4065	128.54
4.407	139.1602
4.4075	156.8298
4.408	179.9927
4.4085	210.2966
4.409	214.0503
4.4095	189.5142
4.41	159.3018
4.4105	123.0469
4.411	85.6018
4.4115	62.8967
4.412	-38.8184
4.4125	-98.4192
4.413	-90.8203
4.4135	-70.7703
4.414	-61.2488
4.4145	-87.8906
4.415	-93.75
4.4155	-70.0378
4.416	1.0071
4.4165	85.144
4.417	186.8591
4.4175	258.4534
4.418	302.5818
4.4185	306.7017
4.419	296.6309
4.4195	250.0305
4.42	205.2612
4.4205	172.3938
4.421	128.2654
4.4215	84.8694
4.422	55.0232
4.4225	-28.1067
4.423	-140.8081
4.4235	-228.241
4.424	-265.4114
4.4245	-328.7659
4.425	-393.219
4.4255	-455.8411
4.426	-488.1592
4.4265	-474.6094
4.427	-431.9458
4.4275	-396.1487
4.428	-337.0056
4.4285	-263.2141
4.429	-197.6624
4.4295	-197.3877
4.43	-210.2966
4.4305	-195.6482
4.431	-204.4373
4.4315	-122.406
4.432	-14.8315
4.4325	94.2993
4.433	179.2603
4.4335	248.6572
4.434	320.343
4.4345	367.1265
4.435	372.4365
4.4355	334.9915
4.436	269.8059
4.4365	182.7393
4.437	95.7642
4.4375	37.9944
4.438	-64.5447
4.4385	-187.6831
4.439	-268.7073
4.4395	-227.7832
4.44	-181.4575
4.4405	-173.4924
4.441	-157.196
4.4415	-74.7986
4.442	-0.7324
4.4425	60.9741
4.443	88.5315
4.4435	86.7004
4.444	116.7297
4.4445	125.6104
4.445	94.7571
4.4455	55.9387
4.446	-16.8457
4.4465	-49.3469
4.447	-51.3611
4.4475	-141.7236
4.448	-206.3599
4.4485	-221.283
4.449	-208.9233
4.4495	-223.2056
4.45	-238.5864
4.4505	-205.0781
4.451	-140.0757
4.4515	-56.5796
4.452	67.8406
4.4525	217.6208
4.453	293.7927
4.4535	259.3689
4.454	68.7561
4.4545	-55.1147
4.455	-174.0417
4.4555	-198.2117
4.456	-227.5085
4.4565	-208.9233
4.457	-126.2512
4.4575	-5.0354
4.458	181.1829
4.4585	384.0637
4.459	506.1951
4.4595	604.7974
4.46	611.4807
4.4605	570.282
4.461	464.0808
4.4615	278.0457
4.462	133.2092
4.4625	91.095
4.463	92.6514
4.4635	67.2913
4.464	123.6877
4.4645	153.0762
4.465	172.0276
4.4655	169.8303
4.466	169.0063
4.4665	113.6169
4.467	70.9534
4.4675	45.5933
4.468	28.8391
4.4685	25.9094
4.469	24.4446
4.4695	19.6838
4.47	30.304
4.4705	18.5852
4.471	-6.2256
4.4715	-45.1355
4.472	-89.9963
4.4725	-123.1384
4.473	-124.9695
4.4735	-126.709
4.474	-130.2795
4.4745	-140.8081
4.475	-156.9214
4.4755	-186.2183
4.476	-204.3457
4.4765	-246.3684
4.477	-321.5332
4.4775	-385.6201
4.478	-413.5437
4.4785	-441.925
4.479	-480.7434
4.4795	-514.3433
4.48	-531.8298
4.4805	-574.4019
4.481	-555.7251
4.4815	-504.1809
4.482	-422.699
4.4825	-366.9434
4.483	-330.6885
4.4835	-275.8484
4.484	-231.8115
4.4845	-134.3079
4.485	-21.2402
4.4855	78.186
4.486	244.6289
4.4865	355.3162
4.487	359.1614
4.4875	374.0845
4.488	345.6116
4.4885	330.2307
4.489	354.126
4.4895	304.0466
4.49	282.3486
4.4905	312.0117
4.491	312.1948
4.4915	235.3821
4.492	182.6477
4.4925	134.5825
4.493	100.7996
4.4935	52.3682
4.494	-17.395
4.4945	-51.9104
4.495	-80.2917
4.4955	-72.3267
4.496	-80.1086
4.4965	-79.1016
4.497	-54.1077
4.4975	-24.7192
4.498	-35.7971
4.4985	-75.8972
4.499	-88.0737
4.4995	-122.9553
4.5	-176.0559
4.5005	-242.2485
4.501	-295.2576
4.5015	-313.5681
4.502	-316.1316
4.5025	-282.074
4.503	-267.8833
4.5035	-242.5232
4.504	-135.0403
4.5045	23.5291
4.505	175.6897
4.5055	250.1221
4.506	258.1787
4.5065	270.1721
4.507	256.8054
4.5075	192.5354
4.508	93.2007
4.5085	36.2549
4.509	-46.7834
4.5095	-135.9558
4.51	-265.9607
4.5105	-312.8357
4.511	-322.6318
4.5115	-326.3855
4.512	-285.7361
4.5125	-152.2522
4.513	-29.9377
4.5135	133.667
4.514	310.2722
4.5145	436.9812
4.515	529.0833
4.5155	552.7039
4.516	544.0979
4.5165	498.23
4.517	419.0369
4.5175	348.7244
4.518	281.9824
4.5185	176.239
4.519	58.4106
4.5195	-9.7046
4.52	-31.6772
4.5205	-28.1067
4.521	-27.3743
4.5215	-52.0935
4.522	-61.3403
4.5225	-20.874
4.523	43.3044
4.5235	101.0742
4.524	108.3069
4.5245	112.3352
4.525	76.7212
4.5255	66.3757
4.526	66.0095
4.5265	61.0657
4.527	57.1289
4.5275	63.2629
4.528	56.488
4.5285	29.3884
4.529	5.9509
4.5295	-12.9089
4.53	-15.1978
4.5305	-16.571
4.531	-31.4026
4.5315	-29.6631
4.532	-36.8958
4.5325	-31.7688
4.533	-38.0859
4.5335	-41.6565
4.534	-41.1072
4.5345	-45.0439
4.535	-61.4319
4.5355	-58.3191
4.536	-60.6995
4.5365	-68.9392
4.537	-72.6929
4.5375	-69.8547
4.538	-75.531
4.5385	-82.6721
4.539	-82.1228
4.5395	-72.4182
4.54	-76.7212
4.5405	-78.2776
4.541	-74.9817
4.5415	-74.0662
4.542	-66.2842
4.5425	-57.9529
4.543	-57.2205
4.5435	-52.4597
4.544	-55.7556
4.5445	-56.8542
4.545	-56.8542
4.5455	-57.1289
4.546	-54.7485
4.5465	-49.7131
4.547	-51.9104
4.5475	-50.7202
4.548	-56.3049
4.5485	-55.9387
4.549	-45.6848
4.5495	-35.9802
4.55	-37.9944
4.5505	-28.4729
4.551	-34.3323
4.5515	-32.6843
4.552	-24.2615
4.5525	-13.7329
4.553	-14.4653
4.5535	-11.1694
4.554	-12.2681
4.5545	-12.8174
4.555	-7.3242
4.5555	-4.3945
4.556	3.3875
4.5565	-6.134
4.557	-5.5847
4.5575	-8.3313
4.558	-2.3804
4.5585	-0.0916
4.559	-4.8523
4.5595	-4.2114
4.56	-7.1411
4.5605	3.5706
4.561	-1.1902
4.5615	-3.479
4.562	-10.3455
4.5625	-5.4932
4.563	0.3662
4.5635	-6.6833
4.564	5.0354
4.5645	2.3804
4.565	1.2817
4.5655	2.5635
4.566	6.3171
4.5665	5.4016
4.567	2.0142
4.5675	-5.5847
4.568	-5.2185
4.5685	-5.2185
4.569	-5.5847
4.5695	-5.5847
4.57	-2.0142
4.5705	-5.2185
4.571	-9.2468
4.5715	-4.6692
4.572	-5.2185
4.5725	-9.0637
4.573	-12.3596
4.5735	-4.7607
4.574	-10.3455
4.5745	-8.5144
4.575	-6.8665
4.5755	-1.5564
4.576	-8.6975
4.5765	-7.8735
4.577	-7.1411
4.5775	-7.782
4.578	-6.5918
4.5785	-10.0708
4.579	-12.085
4.5795	-12.6343
4.58	-6.7749
4.5805	-7.1411
4.581	-0.9155
4.5815	-11.4441
4.582	-7.2327
4.5825	-13.1836
4.583	-10.7117
4.5835	-9.0637
4.584	-13.3667
4.5845	-9.7961
4.585	-8.3313
4.5855	-14.74
4.586	-9.613
4.5865	-8.5144
4.587	-14.6484
4.5875	-14.6484
4.588	-8.9722
4.5885	-6.7749
4.589	-10.7117
4.5895	-9.4299
4.59	-17.6697
4.5905	-7.5073
4.591	-5.6763
4.5915	-7.782
4.592	-7.9651
4.5925	-10.2539
4.593	-5.0354
4.5935	-5.5847
4.594	-2.2888
4.5945	-0.4578
4.595	-1.1902
4.5955	-1.8311
4.596	-3.479
4.5965	-9.5215
4.597	-8.2397
4.5975	-7.782
4.598	-3.479
4.5985	-0.824
4.599	-3.479
4.5995	3.8452
4.6	-2.3804
4.6005	-12.085
4.601	-3.3875
4.6015	-7.6904
4.602	-2.7466
4.6025	-5.0354
4.603	-10.2539
4.6035	-17.7612
4.604	-10.5286
4.6045	-13.2751
4.605	-16.3879
4.6055	-13.7329
4.606	-10.2539
4.6065	-9.5215
4.607	-9.3384
4.6075	-3.7537
4.608	-3.479
4.6085	-3.9368
4.609	-4.2114
4.6095	-3.1128
4.61	-3.6621
4.6105	-11.1694
4.611	-12.5427
4.6115	2.0142
4.612	-10.7117
4.6125	-13.6414
4.613	-5.4932
4.6135	-10.9863
4.614	-1.0071
4.6145	-3.5706
4.615	-4.1199
4.6155	-6.3171
4.616	-11.5356
4.6165	-8.6975
4.617	-8.606
4.6175	-6.2256
4.618	-1.7395
4.6185	-4.4861
4.619	-6.134
4.6195	-12.5427
4.62	-11.6272
4.6205	-8.0566
4.621	-9.9792
4.6215	-12.9089
4.622	-9.7046
4.6225	-13.4583
4.623	-9.0637
4.6235	-9.9792
4.624	-12.1765
4.6245	-13.3667
4.625	-18.7683
4.6255	-12.9089
4.626	-15.1062
4.6265	-6.8665
4.627	-6.0425
4.6275	-11.6272
4.628	-8.6975
4.6285	-11.8103
4.629	-7.782
4.6295	-12.5427
4.63	-17.2119
4.6305	-19.5007
4.631	-21.7896
4.6315	-17.1204
4.632	-15.4724
4.6325	-19.7754
4.633	-18.3105
4.6335	-12.7258
4.634	-11.7188
4.6345	-14.5569
4.635	-9.2468
4.6355	-12.9089
4.636	-11.8103
4.6365	-12.5427
4.637	-23.2544
4.6375	-13.092
4.638	-22.9797
4.6385	-18.5852
4.639	-13.6414
4.6395	-13.1836
4.64	-9.7046
4.6405	-9.2468
4.641	-9.1553
4.6415	-9.7046
4.642	-6.0425
4.6425	-6.6833
4.643	-14.6484
4.6435	-8.4229
4.644	-7.782
4.6445	-9.8877
4.645	-11.261
4.6455	-4.1199
4.646	-6.3171
4.6465	-2.5635
4.647	-8.7891
4.6475	-6.7749
4.648	-4.5776
4.6485	-1.2817
4.649	-3.3875
4.6495	-4.6692
4.65	-10.7117
4.6505	-6.7749
4.651	-2.8381
4.6515	-7.782
4.652	-8.3313
4.6525	-2.3804
4.653	1.4648
4.6535	-6.6833
4.654	0.2747
4.6545	-1.6479
4.655	6.7749
4.6555	-1.9226
4.656	-0.0916
4.6565	-8.1482
4.657	-1.2817
4.6575	-3.3875
4.658	-8.1482
4.6585	-3.6621
4.659	-4.4861
4.6595	3.7537
4.66	2.2888
4.6605	-1.1902
4.661	-0.824
4.6615	1.2817
4.662	1.3733
4.6625	-0.1831
4.663	1.7395
4.6635	-4.0283
4.664	2.4719
4.6645	-1.8311
4.665	-1.8311
4.6655	-5.3101
4.666	1.0071
4.6665	-3.7537
4.667	-1.2817
4.6675	-0.0916
4.668	12.1765
4.6685	-8.4229
4.669	-2.8381
4.6695	0.5493
4.67	-1.5564
4.6705	-1.6479
4.671	-4.5776
4.6715	-11.5356
4.672	-7.0496
4.6725	-4.3945
4.673	0.2747
4.6735	8.1482
4.674	3.1128
4.6745	3.0212
4.675	-1.5564
4.6755	-2.5635
4.676	1.3733
4.6765	-3.2043
4.677	-0.4578
4.6775	-5.4932
4.678	-5.7678
4.6785	-11.9019
4.679	0.5493
4.6795	-1.1902
4.68	-1.4648
4.6805	2.2888
4.681	-3.3875
4.6815	0.3662
4.682	-2.1057
4.6825	7.9651
4.683	3.479
4.6835	3.1128
4.684	-3.3875
4.6845	2.9297
4.685	-1.8311
4.6855	2.5635
4.686	-0.824
4.6865	-1.1902
4.687	-3.3875
4.6875	-0.824
4.688	6.0425
4.6885	-0.4578
4.689	-7.782
4.6895	5.5847
4.69	2.5635
4.6905	-1.0071
4.691	-4.2114
4.6915	2.5635
4.692	7.2327
4.6925	9.3384
4.693	6.5918
4.6935	5.0354
4.694	13.916
4.6945	12.1765
4.695	6.8665
4.6955	7.2327
4.696	0.0916
4.6965	0.7324
4.697	3.0212
4.6975	-0.0916
4.698	1.3733
4.6985	5.9509
4.699	-1.9226
4.6995	0.2747
4.7	-0.5493
4.7005	3.5706
4.701	-4.4861
4.7015	-6.4087
4.702	-8.8806
4.7025	-15.4724
4.703	-10.6201
4.7035	-12.5427
4.704	-6.8665
4.7045	-16.3879
4.705	-5.0354
4.7055	-9.3384
4.706	-11.6272
4.7065	-20.5078
4.707	-2.1057
4.7075	-12.1765
4.708	-8.1482
4.7085	-17.8528
4.709	-22.3389
4.7095	-4.7607
4.71	-10.3455
4.7105	-5.3101
4.711	-20.6909
4.7115	-10.8032
4.712	-11.261
4.7125	-20.7825
4.713	-11.4441
4.7135	-8.5144
4.714	-12.3596
4.7145	-20.9656
4.715	-20.5078
4.7155	-16.2048
4.716	-15.1062
4.7165	-13.4583
4.717	-18.4021
4.7175	-11.0779
4.718	-16.571
4.7185	-13.8245
4.719	-9.7961
4.7195	-15.0146
4.72	-22.4304
4.7205	-15.4724
4.721	-19.6838
4.7215	-13.1836
4.722	-10.2539
4.7225	-7.5073
4.723	-8.7891
4.7235	-5.5847
4.724	-10.2539
4.7245	-6.134
4.725	-15.3809
4.7255	-12.2681
4.726	-16.8457
4.7265	-19.8669
4.727	-22.3389
4.7275	-24.9939
4.728	-28.3813
4.7285	-27.1912
4.729	-27.9236
4.7295	-22.522
4.73	-31.311
4.7305	-29.1138
4.731	-15.8386
4.7315	-22.4304
4.732	-17.7612
4.7325	-26.4587
4.733	-20.5078
4.7335	-21.4233
4.734	-22.522
4.7345	-28.656
4.735	-26.0925
4.7355	-20.5994
4.736	-21.1487
4.7365	-27.0081
4.737	-23.3459
4.7375	-24.4446
4.738	-24.6277
4.7385	-27.3743
4.739	-30.9448
4.7395	-27.7405
4.74	-22.8882
4.7405	-23.3459
4.741	-32.0435
4.7415	-27.9236
4.742	-27.9236
4.7425	-31.7688
4.743	-20.5994
4.7435	-23.3459
4.744	-20.3247
4.7445	-20.1416
4.745	-16.2048
4.7455	-33.8745
4.746	-22.7051
4.7465	-31.4941
4.747	-20.5994
4.7475	-25.9094
4.748	-27.5574
4.7485	-28.1067
4.749	-27.832
4.7495	-30.0293
4.75	-25.3601
4.7505	-22.7051
4.751	-33.8745
4.7515	-33.9661
4.752	-31.2195
4.7525	-30.0293
4.753	-40.2832
4.7535	-38.0859
4.754	-39.7339
4.7545	-35.614
4.755	-33.5999
4.7555	-33.8745
4.756	-45.3186
4.7565	-44.8608
4.757	-43.0298
4.7575	-38.269
4.758	-38.1775
4.7585	-36.7126
4.759	-38.1775
4.7595	-35.2478
4.76	-37.9028
4.7605	-40.0085
4.761	-39.2761
4.7615	-38.1775
4.762	-36.6211
4.7625	-40.2832
4.763	-40.741
4.7635	-37.5366
4.764	-25.7263
4.7645	-33.2336
4.765	-23.8953
4.7655	-33.5083
4.766	-38.3606
4.7665	-33.4167
4.767	-42.572
4.7675	-36.438
4.768	-44.4031
4.7685	-43.2129
4.769	-39.6423
4.7695	-31.6772
4.77	-36.3464
4.7705	-34.6069
4.771	-41.4734
4.7715	-36.6211
4.772	-34.8816
4.7725	-36.438
4.773	-39.2761
4.7735	-39.917
4.774	-38.9099
4.7745	-40.741
4.775	-37.9944
4.7755	-35.9802
4.776	-40.1917
4.7765	-34.6069
4.777	-28.8391
4.7775	-38.5437
4.778	-39.7339
4.7785	-35.614
4.779	-32.3181
4.7795	-32.959
4.78	-42.4805
4.7805	-37.6282
4.781	-39.2761
4.7815	-52.002
4.782	-43.6707
4.7825	-51.4526
4.783	-49.3469
4.7835	-49.53
4.784	-44.4946
4.7845	-43.8538
4.785	-45.9595
4.7855	-53.7415
4.786	-51.2695
4.7865	-50.6287
4.787	-54.4739
4.7875	-44.6777
4.788	-55.2063
4.7885	-47.7905
4.789	-44.0369
4.7895	-39.093
4.79	-41.748
4.7905	-41.2903
4.791	-45.5933
4.7915	-40.6494
4.792	-40.3748
4.7925	-41.6565
4.793	-41.4734
4.7935	-44.4946
4.794	-45.0439
4.7945	-38.9099
4.795	-37.3535
4.7955	-37.0789
4.796	-39.2761
4.7965	-40.9241
4.797	-39.093
4.7975	-51.178
4.798	-44.1284
4.7985	-49.4385
4.799	-44.0369
4.7995	-39.2761
4.8	-52.2766
4.8005	-46.3257
4.801	-44.8608
4.8015	-44.22
4.802	-47.6074
4.8025	-35.2478
4.803	-38.1775
4.8035	-42.3889
4.804	-46.051
4.8045	-33.783
4.805	-40.0085
4.8055	-41.1987
4.806	-31.9519
4.8065	-35.9802
4.807	-41.1072
4.8075	-31.8604
4.808	-36.7126
4.8085	-28.656
4.809	-23.2544
4.8095	-25.6348
4.81	-29.9377
4.8105	-23.2544
4.811	-29.2053
4.8115	-37.0789
4.812	-39.4592
4.8125	-34.9731
4.813	-45.5017
4.8135	-36.438
4.814	-29.3884
4.8145	-32.0435
4.815	-34.1492
4.8155	-29.7546
4.816	-29.6631
4.8165	-34.4238
4.817	-32.2266
4.8175	-34.3323
4.818	-35.7971
4.8185	-35.5225
4.819	-32.4097
4.8195	-30.2124
4.82	-33.0505
4.8205	-28.0151
4.821	-32.5012
4.8215	-20.7825
4.822	-20.9656
4.8225	-21.8811
4.823	-25.8179
4.8235	-21.1487
4.824	-25.177
4.8245	-33.2336
4.825	-23.1628
4.8255	-20.7825
4.826	-28.7476
4.8265	-17.0288
4.827	-26.5503
4.8275	-23.2544
4.828	-18.3105
4.8285	-17.3035
4.829	-11.0779
4.8295	-16.3879
4.83	-18.8599
4.8305	-11.261
4.831	-14.9231
4.8315	-19.5007
4.832	-19.3176
4.8325	-15.4724
4.833	-14.5569
4.8335	-15.564
4.834	-13.8245
4.8345	-17.2119
4.835	-16.7542
4.8355	-19.8669
4.836	-16.8457
4.8365	-14.0991
4.837	-16.4795
4.8375	-15.3809
4.838	-12.6343
4.8385	-17.6697
4.839	-15.8386
4.8395	-12.3596
4.84	-14.1907
4.8405	-16.9373
4.841	-14.3738
4.8415	-14.0076
4.842	-12.7258
4.8425	-9.9792
4.843	-13.092
4.8435	-10.3455
4.844	-14.6484
4.8445	-14.0076
4.845	-17.395
4.8455	-13.7329
4.846	-12.1765
4.8465	-19.3176
4.847	-17.6697
4.8475	-16.2048
4.848	-8.2397
4.8485	-13.2751
4.849	-5.4016
4.8495	-11.261
4.85	-5.7678
4.8505	-6.0425
4.851	-4.5776
4.8515	-8.8806
4.852	-8.6975
4.8525	-6.3171
4.853	-7.5073
4.8535	-6.5002
4.854	-5.2185
4.8545	-0.1831
4.855	-0.7324
4.8555	1.7395
4.856	-6.8665
4.8565	-4.303
4.857	-12.4512
4.8575	-4.1199
4.858	-4.4861
4.8585	-8.606
4.859	-3.9368
4.8595	-0.824
4.86	-8.1482
4.8605	-4.303
4.861	-0.0916
4.8615	0.1831
4.862	1.5564
4.8625	-5.2185
4.863	1.9226
4.8635	1.2817
4.864	-3.2959
4.8645	-0.4578
4.865	0.4578
4.8655	0.6409
4.866	0.5493
4.8665	-6.5002
4.867	-1.2817
4.8675	2.1973
4.868	2.5635
4.8685	9.7961
4.869	-0.9155
4.8695	4.0283
4.87	4.8523
4.8705	7.6904
4.871	6.5918
4.8715	3.6621
4.872	7.3242
4.8725	3.6621
4.873	10.3455
4.8735	7.0496
4.874	4.8523
4.8745	4.9438
4.875	3.6621
4.8755	13.092
4.876	4.5776
4.8765	9.0637
4.877	9.4299
4.8775	7.5989
4.878	5.2185
4.8785	2.8381
4.879	7.6904
4.8795	6.8665
4.88	11.5356
4.8805	8.5144
4.881	10.6201
4.8815	9.7046
4.882	9.9792
4.8825	4.7607
4.883	6.3171
4.8835	3.479
4.884	15.6555
4.8845	17.395
4.885	24.353
4.8855	17.4866
4.886	6.5918
4.8865	14.9231
4.887	9.4299
4.8875	6.8665
4.888	11.3525
4.8885	17.395
4.889	16.6626
4.8895	10.7117
4.89	16.9373
4.8905	9.9792
4.891	14.5569
4.8915	13.6414
4.892	12.085
4.8925	12.4512
4.893	11.9934
4.8935	20.05
4.894	20.7825
4.8945	10.5286
4.895	16.2048
4.8955	10.7117
4.896	14.0991
4.8965	9.7961
4.897	13.916
4.8975	11.7188
4.898	12.7258
4.8985	17.9443
4.899	9.9792
4.8995	18.9514
4.9	21.5149
4.9005	13.4583
4.901	13.0005
4.9015	25.5432
4.902	20.6909
4.9025	15.2893
4.903	21.5149
4.9035	12.4512
4.904	10.437
4.9045	21.8811
4.905	20.3247
4.9055	21.6064
4.906	17.395
4.9065	19.5007
4.907	29.2053
4.9075	20.874
4.908	17.3035
4.9085	25.3601
4.909	23.4375
4.9095	17.395
4.91	17.1204
4.9105	16.9373
4.911	18.219
4.9115	23.8037
4.912	17.8528
4.9125	24.0784
4.913	29.0222
4.9135	31.4026
4.914	29.0222
4.9145	29.8462
4.915	24.353
4.9155	19.1345
4.916	22.1558
4.9165	20.6909
4.917	26.4587
4.9175	24.0784
4.918	19.9585
4.9185	28.0151
4.919	26.001
4.9195	26.2756
4.92	23.2544
4.9205	28.1067
4.921	27.5574
4.9215	22.3389
4.922	28.2898
4.9225	29.3884
4.923	28.4729
4.9235	27.7405
4.924	24.7192
4.9245	23.7122
4.925	25.6348
4.9255	27.0996
4.926	27.3743
4.9265	21.4233
4.927	20.4163
4.9275	20.9656
4.928	24.4446
4.9285	24.2615
4.929	25.0854
4.9295	17.7612
4.93	14.74
4.9305	13.916
4.931	14.1907
4.9315	23.6206
4.932	20.9656
4.9325	28.3813
4.933	29.9377
4.9335	28.656
4.934	28.9307
4.9345	33.5999
4.935	33.2336
4.9355	32.8674
4.936	20.1416
4.9365	26.825
4.937	29.3884
4.9375	21.0571
4.938	24.0784
4.9385	30.7617
4.939	30.4871
4.9395	34.6069
4.94	31.2195
4.9405	30.3955
4.941	32.5012
4.9415	21.4233
4.942	29.0222
4.9425	28.8391
4.943	27.832
4.9435	17.7612
4.944	22.1558
4.9445	25.5432
4.945	23.2544
4.9455	31.5857
4.946	26.9165
4.9465	33.783
4.947	31.7688
4.9475	32.0435
4.948	27.7405
4.9485	27.832
4.949	27.0996
4.9495	19.3176
4.95	17.0288
4.9505	24.8108
4.951	21.8811
4.9515	18.5852
4.952	20.9656
4.9525	25.2686
4.953	27.0996
4.9535	30.9448
4.954	25.9094
4.9545	20.1416
4.955	23.2544
4.9555	18.4021
4.956	13.8245
4.9565	16.8457
4.957	26.3672
4.9575	20.9656
4.958	25.4517
4.9585	24.8108
4.959	17.395
4.9595	24.9939
4.96	16.7542
4.9605	19.5007
4.961	19.3176
4.9615	22.0642
4.962	24.9939
4.9625	24.0784
4.963	23.3459
4.9635	29.0222
4.964	28.4729
4.9645	26.6418
4.965	30.4871
4.9655	28.656
4.966	20.5078
4.9665	29.3884
4.967	23.7122
4.9675	26.0925
4.968	26.0925
4.9685	29.8462
4.969	16.8457
4.9695	22.8882
4.97	15.1062
4.9705	12.8174
4.971	13.4583
4.9715	20.5994
4.972	9.7961
4.9725	5.4932
4.973	3.2043
4.9735	4.6692
4.974	5.4016
4.9745	7.5073
4.975	13.3667
4.9755	13.1836
4.976	24.5361
4.9765	26.2756
4.977	25.7263
4.9775	22.8882
4.978	27.832
4.9785	28.1982
4.979	27.4658
4.9795	23.6206
4.98	27.3743
4.9805	27.3743
4.981	25.3601
4.9815	21.2402
4.982	23.2544
4.9825	22.9797
4.983	10.8948
4.9835	14.5569
4.984	10.3455
4.9845	15.7471
4.985	10.437
4.9855	7.3242
4.986	3.7537
4.9865	10.437
4.987	8.5144
4.9875	-2.655
4.988	-3.3875
4.9885	1.1902
4.989	-1.1902
4.9895	-10.0708
4.99	9.613
4.9905	13.3667
4.991	15.7471
4.9915	26.6418
4.992	20.7825
4.9925	28.1067
4.993	26.5503
4.9935	22.2473
4.994	21.5149
4.9945	21.7896
4.995	16.8457
4.9955	7.9651
4.996	7.3242
4.9965	8.0566
4.997	11.0779
4.9975	7.9651
4.998	9.7961
4.9985	7.9651
4.999	0.9155
4.9995	1.3733
5	-1.1902
5.0005	-2.4719
5.001	-2.2888
5.0015	9.613
5.002	9.1553
5.0025	13.3667
5.003	8.7891
5.0035	11.1694
5.004	18.5852
5.0045	7.9651
5.005	20.7825
5.0055	14.5569
5.006	22.0642
5.0065	16.0217
5.007	19.2261
5.0075	2.9297
5.008	0.1831
5.0085	-3.6621
5.009	-8.0566
5.0095	-10.437
5.01	-19.3176
5.0105	-9.0637
5.011	-11.7188
5.0115	-9.2468
5.012	-15.1062
5.0125	-18.0359
5.013	-11.5356
5.0135	-4.7607
5.014	2.8381
5.0145	20.874
5.015	26.001
5.0155	35.0647
5.016	34.9731
5.0165	47.1497
5.017	53.2837
5.0175	61.7981
5.018	59.6008
5.0185	63.2629
5.019	66.4673
5.0195	58.5938
5.02	54.7485
5.0205	54.1077
5.021	52.5513
5.0215	30.2124
5.022	26.2756
5.0225	22.1558
5.023	14.6484
5.0235	11.261
5.024	2.655
5.0245	0.2747
5.025	-1.1902
5.0255	-4.3945
5.026	-22.2473
5.0265	-33.0505
5.027	-27.5574
5.0275	-37.0789
5.028	-49.7131
5.0285	-49.1638
5.029	-49.7131
5.0295	-41.4734
5.03	-22.4304
5.0305	-5.2185
5.031	22.7966
5.0315	34.1492
5.032	40.9241
5.0325	43.5791
5.033	48.6145
5.0335	43.3044
5.034	23.1628
5.0345	-0.2747
5.035	-8.6975
5.0355	-2.2888
5.036	-1.1902
5.0365	11.6272
5.037	17.4866
5.0375	20.05
5.038	30.2124
5.0385	24.8108
5.039	28.3813
5.0395	18.8599
5.04	5.5847
5.0405	-2.4719
5.041	-16.3879
5.0415	-21.1487
5.042	-18.9514
5.0425	-6.8665
5.043	-2.1973
5.0435	19.6838
5.044	61.5234
5.0445	98.4192
5.045	111.8774
5.0455	115.7227
5.046	116.6382
5.0465	100.7996
5.047	84.8694
5.0475	54.9316
5.048	39.917
5.0485	14.4653
5.049	13.092
5.0495	25.9094
5.05	33.3252
5.0505	17.1204
5.051	0.1831
5.0515	-19.5007
5.052	-37.262
5.0525	-36.5295
5.053	-34.1492
5.0535	-18.4937
5.054	3.6621
5.0545	30.1208
5.055	63.446
5.0555	75.6226
5.056	103.1799
5.0565	105.1941
5.057	88.8977
5.0575	76.9958
5.058	68.8477
5.0585	63.2629
5.059	55.7556
5.0595	43.4875
5.06	36.6211
5.0605	32.5012
5.061	24.2615
5.0615	26.4587
5.062	35.7056
5.0625	45.6848
5.063	39.6423
5.0635	43.396
5.064	48.4314
5.0645	54.1077
5.065	53.6499
5.0655	56.6711
5.066	58.7769
5.0665	58.8684
5.067	60.3333
5.0675	48.7976
5.068	52.2766
5.0685	50.354
5.069	61.4319
5.0695	53.1921
5.07	45.3186
5.0705	35.8887
5.071	23.8953
5.0715	15.1062
5.072	11.8103
5.0725	10.7117
5.073	14.5569
5.0735	0
5.074	-31.5857
5.0745	-39.2761
5.075	-39.1846
5.0755	-22.4304
5.076	-14.9231
5.0765	-11.5356
5.077	-10.8032
5.0775	-12.9089
5.078	-8.9722
5.0785	-1.1902
5.079	11.1694
5.0795	8.1482
5.08	5.127
5.0805	-5.5847
5.081	12.2681
5.0815	22.8882
5.082	30.4871
5.0825	42.572
5.083	48.6145
5.0835	88.8062
5.084	113.5254
5.0845	101.6235
5.085	72.6929
5.0855	61.4319
5.086	57.1289
5.0865	63.446
5.087	61.4319
5.0875	53.5583
5.088	60.5164
5.0885	65.0024
5.089	55.5725
5.0895	61.9812
5.09	74.2493
5.0905	79.3762
5.091	78.2776
5.0915	81.5735
5.092	74.9817
5.0925	54.7485
5.093	33.2336
5.0935	-2.655
5.094	-26.4587
5.0945	-41.4734
5.095	-32.959
5.0955	-38.4521
5.096	-31.2195
5.0965	-24.9023
5.097	-12.3596
5.0975	-0.5493
5.098	-0.2747
5.0985	2.0142
5.099	16.3879
5.0995	11.8103
5.1	-10.1624
5.1005	-21.6064
5.101	-39.0015
5.1015	-45.0439
5.102	-56.0303
5.1025	-47.5159
5.103	-43.9453
5.1035	-24.9939
5.104	0.7324
5.1045	18.4021
5.105	28.1067
5.1055	50.4456
5.106	57.9529
5.1065	39.3677
5.107	31.2195
5.1075	18.3105
5.108	14.0076
5.1085	-15.0146
5.109	-24.9939
5.1095	-21.0571
5.11	-27.2827
5.1105	-44.4031
5.111	-48.4314
5.1115	-58.5938
5.112	-79.01
5.1125	-108.1238
5.113	-131.5613
5.1135	-160.1257
5.114	-169.6472
5.1145	-147.1252
5.115	-138.5193
5.1155	-133.8501
5.116	-128.3569
5.1165	-99.7009
5.117	-49.2554
5.1175	-33.9661
5.118	-3.0212
5.1185	36.8042
5.119	60.6995
5.1195	47.6074
5.12	15.2893
5.1205	-43.6707
5.121	-106.6589
5.1215	-164.3372
5.122	-225.3113
5.1225	-253.9673
5.123	-229.8889
5.1235	-205.9021
5.124	-191.5283
5.1245	-157.196
5.125	-129.364
5.1255	-88.3484
5.126	-75.3479
5.1265	-79.5593
5.127	-78.186
5.1275	-74.5239
5.128	-86.1511
5.1285	-115.9058
5.129	-136.322
5.1295	-128.9062
5.13	-135.6812
5.1305	-140.8997
5.131	-119.1101
5.1315	-59.7839
5.132	-7.0496
5.1325	24.9939
5.133	62.1643
5.1335	88.2568
5.134	105.7434
5.1345	122.3145
5.135	144.8364
5.1355	184.2041
5.136	166.4429
5.1365	156.4636
5.137	145.8435
5.1375	118.2861
5.138	94.0247
5.1385	85.8765
5.139	85.968
5.1395	63.8123
5.14	30.304
5.1405	10.1624
5.141	8.3313
5.1415	-35.2478
5.142	-74.7986
5.1425	-109.7717
5.143	-126.8005
5.1435	-125.4272
5.144	-112.793
5.1445	-58.5022
5.145	14.8315
5.1455	12.2681
5.146	18.1274
5.1465	17.395
5.147	16.9373
5.1475	-6.5002
5.148	-7.2327
5.1485	-9.2468
5.149	-13.6414
5.1495	-3.5706
5.15	12.9089
5.1505	41.5649
5.151	35.614
5.1515	13.2751
5.152	26.6418
5.1525	42.4805
5.153	72.7844
5.1535	103.8208
5.154	128.8147
5.1545	121.8567
5.155	95.7642
5.1555	72.1436
5.156	43.9453
5.1565	15.8386
5.157	1.3733
5.1575	-0.1831
5.158	-8.5144
5.1585	-16.0217
5.159	-62.6221
5.1595	-200.7751
5.16	-334.0759
5.1605	-411.0718
5.161	-455.1086
5.1615	-478.363
5.162	-492.4622
5.1625	-463.2568
5.163	-337.3718
5.1635	-166.3513
5.164	16.6626
5.1645	161.4075
5.165	268.2495
5.1655	320.7092
5.166	308.5327
5.1665	297.7295
5.167	220.7336
5.1675	162.6892
5.168	77.179
5.1685	21.6064
5.169	-7.6904
5.1695	72.6013
5.17	169.4641
5.1705	130.2795
5.171	87.4329
5.1715	30.1208
5.172	-5.2185
5.1725	-17.8528
5.173	-27.9236
5.1735	-56.488
5.174	-83.9539
5.1745	-94.7571
5.175	-116.7297
5.1755	-236.7554
5.176	-308.3496
5.1765	-354.2175
5.177	-367.7673
5.1775	-368.5913
5.178	-344.9707
5.1785	-304.3213
5.179	-303.0396
5.1795	-250.6714
5.18	-194.8242
5.1805	-166.9922
5.181	-131.1951
5.1815	-62.6221
5.182	-1.2817
5.1825	23.2544
5.183	88.1653
5.1835	146.6675
5.184	122.9553
5.1845	93.75
5.185	98.6023
5.1855	133.2092
5.186	111.8774
5.1865	75.6226
5.187	55.2063
5.1875	96.405
5.188	108.8562
5.1885	-71.1365
5.189	-290.4968
5.1895	-470.6726
5.19	-545.5627
5.1905	-587.3108
5.191	-628.2349
5.1915	-592.2546
5.192	-518.0054
5.1925	-468.9331
5.193	-390.564
5.1935	-338.8367
5.194	-244.812
5.1945	-190.6128
5.195	-134.3994
5.1955	-164.8865
5.196	-264.0381
5.1965	-323.7305
5.197	-299.2859
5.1975	-280.9753
5.198	-94.6655
5.1985	209.3811
5.199	557.7393
5.1995	965.9729
5.2	1228.8208
5.2005	1407.8979
5.201	1414.5813
5.2015	1315.2466
5.202	1145.7825
5.2025	930.0842
5.203	735.9009
5.2035	542.3584
5.204	361.1755
5.2045	214.4165
5.205	52.5513
5.2055	-52.0935
5.206	-88.5315
5.2065	-113.6169
5.207	-139.8926
5.2075	-147.4915
5.208	-70.4956
5.2085	-42.9382
5.209	-32.3181
5.2095	-22.9797
5.21	-19.9585
5.2105	68.1152
5.211	128.9978
5.2115	208.4656
5.212	259.2773
5.2125	289.5813
5.213	174.2249
5.2135	6.7749
5.214	-187.5916
5.2145	-351.4709
5.215	-446.4111
5.2155	-504.5471
5.216	-510.498
5.2165	-477.2644
5.217	-374.9084
5.2175	-260.0098
5.218	-157.9285
5.2185	-94.2078
5.219	-36.8042
5.2195	48.2483
5.22	104.6448
5.2205	105.835
5.221	87.616
5.2215	-8.7891
5.222	-74.3408
5.2225	-106.2927
5.223	-159.0271
5.2235	-204.071
5.224	-240.1428
5.2245	-246.7346
5.225	-244.7205
5.2255	-206.0852
5.226	-108.0322
5.2265	-54.657
5.227	-60.791
5.2275	-64.27
5.228	-120.9412
5.2285	-252.594
5.229	-302.8564
5.2295	-310.6384
5.23	-250.2136
5.2305	-200.592
5.231	-178.9856
5.2315	-126.4343
5.232	-70.4041
5.2325	-63.0798
5.233	-31.2195
5.2335	25.6348
5.234	43.9453
5.2345	9.9792
5.235	-64.7278
5.2355	-154.9988
5.236	-232.7271
5.2365	-313.5681
5.237	-377.3804
5.2375	-428.5583
5.238	-399.6277
5.2385	-279.6021
5.239	-78.186
5.2395	140.7166
5.24	178.894
5.2405	149.8718
5.241	183.4717
5.2415	192.4438
5.242	206.2683
5.2425	208.9233
5.243	194.3665
5.2435	221.6492
5.244	237.9456
5.2445	237.3047
5.245	220.0928
5.2455	187.2253
5.246	148.4985
5.2465	158.1116
5.247	110.2295
5.2475	72.2351
5.248	66.8335
5.2485	28.8391
5.249	36.8958
5.2495	20.7825
5.25	131.5613
5.2505	253.1433
5.251	322.4487
5.2515	333.4351
5.252	299.1028
5.2525	256.2561
5.253	179.3518
5.2535	98.053
5.254	125.885
5.2545	181.4575
5.255	199.1272
5.2555	188.0493
5.256	155.9143
5.2565	145.5688
5.257	137.97
5.2575	138.2446
5.258	147.9492
5.2585	146.6675
5.259	94.7571
5.2595	21.3318
5.26	-70.9534
5.2605	-130.0964
5.261	-173.6755
5.2615	-228.0579
5.262	-291.2292
5.2625	-311.8286
5.263	-316.6809
5.2635	-274.3835
5.264	-209.2896
5.2645	-129.9133
5.265	-59.8755
5.2655	16.7542
5.266	57.5867
5.2665	75.2563
5.267	92.1936
5.2675	89.9963
5.268	68.573
5.2685	29.7546
5.269	20.7825
5.2695	17.6697
5.27	-7.5073
5.2705	-26.2756
5.271	-39.3677
5.2715	-40.6494
5.272	-42.2974
5.2725	-38.5437
5.273	-47.6074
5.2735	-55.2063
5.274	-79.1931
5.2745	-81.0242
5.275	-74.4324
5.2755	-75.3479
5.276	-84.7778
5.2765	-86.6089
5.277	-83.2214
5.2775	-77.3621
5.278	-77.179
5.2785	-84.3201
5.279	-78.9185
5.2795	-79.5593
5.28	-76.9043
5.2805	-75.1648
5.281	-78.0945
5.2815	-73.7
5.282	-69.6716
5.2825	-65.2771
5.283	-54.1992
5.2835	-48.6145
5.284	-44.0369
5.2845	-42.572
5.285	-46.6919
5.2855	-49.4385
5.286	-40.0085
5.2865	-34.8816
5.287	-42.572
5.2875	-38.1775
5.288	-41.1072
5.2885	-34.9731
5.289	-30.8533
5.2895	-23.3459
5.29	-19.5007
5.2905	-22.522
5.291	-25.2686
5.2915	-17.9443
5.292	-16.1133
5.2925	-10.2539
5.293	-18.4937
5.2935	-8.3313
5.294	-13.916
5.2945	-12.1765
5.295	0.6409
5.2955	2.4719
5.296	-1.7395
5.2965	7.2327
5.297	-2.0142
5.2975	-0.6409
5.298	-1.8311
5.2985	-6.4087
5.299	1.4648
5.2995	-2.655
5.3	3.6621
5.3005	5.7678
5.301	6.134
5.3015	4.7607
5.302	5.0354
5.3025	0.2747
5.303	4.2114
5.3035	8.8806
5.304	3.2959
5.3045	13.8245
5.305	4.303
5.3055	-1.4648
5.306	3.2043
5.3065	8.6975
5.307	4.303
5.3075	-2.4719
5.308	4.2114
5.3085	0.9155
5.309	6.3171
5.3095	15.2893
5.31	14.9231
5.3105	16.3879
5.311	14.9231
5.3115	14.1907
5.312	10.6201
5.3125	9.4299
5.313	4.6692
5.3135	2.5635
5.314	1.3733
5.3145	-1.1902
5.315	-1.3733
5.3155	0.1831
5.316	4.303
5.3165	2.1973
5.317	-4.4861
5.3175	0.0916
5.318	2.7466
5.3185	-1.1902
5.319	2.1057
5.3195	-5.7678
5.32	-13.0005
5.3205	-14.0991
5.321	-13.5498
5.3215	-7.1411
5.322	-11.6272
5.3225	-13.092
5.323	-6.8665
5.3235	-7.0496
5.324	-9.2468
5.3245	-14.1907
5.325	-7.8735
5.3255	-15.4724
5.326	-1.9226
5.3265	-7.8735
5.327	-11.1694
5.3275	-7.2327
5.328	-9.9792
5.3285	-4.5776
5.329	-3.7537
5.3295	3.2043
5.33	-7.0496
5.3305	-7.5989
5.331	-1.0071
5.3315	-12.7258
5.332	-10.0708
5.3325	-12.6343
5.333	-2.7466
5.3335	-7.9651
5.334	-7.5073
5.3345	-8.9722
5.335	-6.958
5.3355	4.1199
5.336	2.8381
5.3365	5.6763
5.337	-2.4719
5.3375	-5.6763
5.338	-7.3242
5.3385	-7.782
5.339	-12.8174
5.3395	0.6409
5.34	-2.0142
5.3405	-2.5635
5.341	-3.9368
5.3415	-8.1482
5.342	-7.1411
5.3425	-0.1831
5.343	0.3662
5.3435	-0.6409
5.344	2.0142
5.3445	3.0212
5.345	7.2327
5.3455	3.2959
5.346	3.8452
5.3465	5.6763
5.347	3.9368
5.3475	8.0566
5.348	12.9089
5.3485	3.9368
5.349	7.4158
5.3495	4.6692
5.35	-5.3101
5.3505	0.824
5.351	-1.1902
5.3515	-7.0496
5.352	-1.4648
5.3525	0.4578
5.353	-1.1902
5.3535	0.1831
5.354	-5.5847
5.3545	-3.3875
5.355	-1.3733
5.3555	-3.479
5.356	4.8523
5.3565	-0.824
5.357	-3.7537
5.3575	-13.0005
5.358	-4.8523
5.3585	-5.8594
5.359	-6.6833
5.3595	-6.8665
5.36	1.3733
5.3605	-0.9155
5.361	-6.4087
5.3615	3.9368
5.362	-3.7537
5.3625	-1.6479
5.363	-1.1902
5.3635	-1.6479
5.364	-0.6409
5.3645	-4.303
5.365	-3.0212
5.3655	-11.261
5.366	-11.4441
5.3665	-10.6201
5.367	-3.3875
5.3675	-5.2185
5.368	-1.4648
5.3685	-7.0496
5.369	2.1057
5.3695	-3.7537
5.37	-10.0708
5.3705	-10.7117
5.371	-7.6904
5.3715	-20.2332
5.372	-11.9019
5.3725	-13.092
5.373	-10.7117
5.3735	-17.9443
5.374	-10.437
5.3745	-8.0566
5.375	-5.2185
5.3755	-9.2468
5.376	-5.5847
5.3765	-3.7537
5.377	-9.7961
5.3775	-1.5564
5.378	-1.9226
5.3785	-4.8523
5.379	-1.3733
5.3795	-4.9438
5.38	-12.3596
5.3805	-7.782
5.381	-4.8523
5.3815	-3.0212
5.382	0.1831
5.3825	5.127
5.383	-4.8523
5.3835	4.0283
5.384	-3.6621
5.3845	-1.2817
5.385	-5.2185
5.3855	-2.2888
5.386	-4.6692
5.3865	-3.0212
5.387	-4.9438
5.3875	-0.0916
5.388	-1.9226
5.3885	3.9368
5.389	-3.7537
5.3895	4.0283
5.39	-3.7537
5.3905	-3.3875
5.391	6.3171
5.3915	5.9509
5.392	-4.4861
5.3925	4.303
5.393	-0.824
5.3935	4.5776
5.394	5.2185
5.3945	6.5918
5.395	3.5706
5.3955	6.958
5.396	2.0142
5.3965	7.1411
5.397	5.2185
5.3975	-5.127
5.398	-3.5706
5.3985	0.6409
5.399	-1.6479
5.3995	-4.8523
5.4	0.4578
5.4005	3.5706
5.401	3.2043
5.4015	5.127
5.402	-1.0986
5.4025	4.6692
5.403	-0.4578
5.4035	2.2888
5.404	0
5.4045	-4.6692
5.405	2.5635
5.4055	-2.2888
5.406	-6.134
5.4065	3.3875
5.407	4.8523
5.4075	6.5918
5.408	2.1057
5.4085	0.824
5.409	5.4016
5.4095	-6.0425
5.41	-2.2888
5.4105	-0.7324
5.411	-1.1902
5.4115	2.3804
5.412	-1.0071
5.4125	-1.2817
5.413	0
5.4135	4.6692
5.414	-8.3313
5.4145	1.5564
5.415	2.5635
5.4155	-0.9155
5.416	-4.4861
5.4165	0.3662
5.417	-3.3875
5.4175	-12.8174
5.418	-8.5144
5.4185	-7.782
5.419	1.2817
5.4195	-4.8523
5.42	-2.4719
5.4205	2.3804
5.421	-3.9368
5.4215	-8.5144
5.422	5.7678
5.4225	-5.0354
5.423	0.824
5.4235	-9.613
5.424	-4.6692
5.4245	-3.1128
5.425	-5.3101
5.4255	-7.782
5.426	0.5493
5.4265	-3.3875
5.427	-4.1199
5.4275	-2.0142
5.428	1.3733
5.4285	-1.5564
5.429	1.3733
5.4295	7.9651
5.43	-6.6833
5.4305	0
5.431	-1.1902
5.4315	-1.6479
5.432	-3.8452
5.4325	-8.8806
5.433	1.0986
5.4335	-2.655
5.434	-8.1482
5.4345	-1.9226
5.435	-1.1902
5.4355	3.0212
5.436	-3.5706
5.4365	0.1831
5.437	-0.4578
5.4375	-1.5564
5.438	-8.606
5.4385	-2.9297
5.439	1.2817
5.4395	3.5706
5.44	-2.8381
5.4405	5.6763
5.441	-5.6763
5.4415	-13.092
5.442	-7.3242
5.4425	-0.0916
5.443	-7.0496
5.4435	-10.0708
5.444	-8.3313
5.4445	-11.5356
5.445	-1.1902
5.4455	-5.3101
5.446	-1.3733
5.4465	-1.9226
5.447	-8.0566
5.4475	3.6621
5.448	9.2468
5.4485	4.303
5.449	-3.7537
5.4495	0.6409
5.45	-3.3875
5.4505	-3.9368
5.451	-9.7961
5.4515	-5.9509
5.452	-10.1624
5.4525	-2.0142
5.453	-4.5776
5.4535	-8.6975
5.454	-4.1199
5.4545	5.2185
5.455	-0.3662
5.4555	3.5706
5.456	-3.0212
5.4565	-9.613
5.457	-3.6621
5.4575	-5.3101
5.458	-6.958
5.4585	5.2185
5.459	-3.0212
5.4595	-4.2114
5.46	4.6692
5.4605	2.8381
5.461	12.085
5.4615	10.0708
5.462	2.0142
5.4625	9.2468
5.463	3.2043
5.4635	3.5706
5.464	3.2959
5.4645	4.1199
5.465	4.9438
5.4655	-0.9155
5.466	0.2747
5.4665	-0.1831
5.467	-7.9651
5.4675	-6.958
5.468	-4.8523
5.4685	-7.0496
5.469	-7.5989
5.4695	-16.1133
5.47	-14.5569
5.4705	-17.1204
5.471	-10.8032
5.4715	-15.0146
5.472	-6.7749
5.4725	-18.9514
5.473	-15.564
5.4735	-16.0217
5.474	-13.5498
5.4745	-21.3318
5.475	-21.0571
5.4755	-25.3601
5.476	-15.1978
5.4765	-28.5645
5.477	-24.4446
5.4775	-27.9236
5.478	-26.3672
5.4785	-24.0784
5.479	-24.4446
5.4795	-30.1208
5.48	-17.8528
5.4805	-20.7825
5.481	-25.7263
5.4815	-25.3601
5.482	-23.1628
5.4825	-22.9797
5.483	-20.5994
5.4835	-23.3459
5.484	-20.6909
5.4845	-21.5149
5.485	-20.7825
5.4855	-18.1274
5.486	-22.0642
5.4865	-23.2544
5.487	-24.353
5.4875	-23.8953
5.488	-29.7546
5.4885	-33.4167
5.489	-38.9099
5.4895	-30.1208
5.49	-34.1492
5.4905	-38.9099
5.491	-35.4309
5.4915	-33.783
5.492	-37.262
5.4925	-47.2412
5.493	-31.4026
5.4935	-31.4026
5.494	-36.7126
5.4945	-37.262
5.495	-36.6211
5.4955	-36.3464
5.496	-32.6843
5.4965	-31.7688
5.497	-38.7268
5.4975	-40.4663
5.498	-28.3813
5.4985	-42.9382
5.499	-28.1067
5.4995	-28.4729
5.5	-26.3672
5.5005	-37.3535
5.501	-32.5012
5.5015	-43.5791
5.502	-27.7405
5.5025	-30.4871
5.503	-33.4167
5.5035	-33.783
5.504	-38.8184
5.5045	-23.5291
5.505	-33.6914
5.5055	-28.4729
5.506	-31.9519
5.5065	-26.0925
5.507	-32.3181
5.5075	-34.3323
5.508	-30.304
5.5085	-37.6282
5.509	-34.9731
5.5095	-43.6707
5.51	-36.0718
5.5105	-36.7126
5.511	-31.2195
5.5115	-39.7339
5.512	-37.8113
5.5125	-37.7197
5.513	-42.2058
5.5135	-31.311
5.514	-37.4451
5.5145	-37.4451
5.515	-32.8674
5.5155	-42.2058
5.516	-43.9453
5.5165	-33.5083
5.517	-35.9802
5.5175	-35.9802
5.518	-43.1213
5.5185	-42.7551
5.519	-35.8887
5.5195	-46.2341
5.52	-38.269
5.5205	-44.0369
5.521	-39.6423
5.5215	-41.3818
5.522	-34.6069
5.5225	-44.7693
5.523	-40.4663
5.5235	-37.0789
5.524	-30.6702
5.5245	-31.9519
5.525	-32.5012
5.5255	-29.9377
5.526	-33.783
5.5265	-44.5862
5.527	-40.4663
5.5275	-36.7126
5.528	-38.5437
5.5285	-39.0015
5.529	-34.2407
5.5295	-43.7622
5.53	-36.2549
5.5305	-36.8042
5.531	-33.4167
5.5315	-42.2058
5.532	-39.6423
5.5325	-35.7971
5.533	-33.6914
5.5335	-38.6353
5.534	-38.5437
5.5345	-40.741
5.535	-38.9099
5.5355	-43.8538
5.536	-40.4663
5.5365	-38.7268
5.537	-30.4871
5.5375	-37.7197
5.538	-46.9666
5.5385	-35.2478
5.539	-41.1987
5.5395	-45.1355
5.54	-48.9807
5.5405	-46.1426
5.541	-39.093
5.5415	-43.396
5.542	-35.7056
5.5425	-40.0085
5.543	-40.5579
5.5435	-36.1633
5.544	-40.741
5.5445	-37.4451
5.545	-42.4805
5.5455	-37.0789
5.546	-42.3889
5.5465	-42.3889
5.547	-41.5649
5.5475	-34.6985
5.548	-34.79
5.5485	-39.093
5.549	-39.093
5.5495	-35.5225
5.55	-34.1492
5.5505	-29.3884
5.551	-33.0505
5.5515	-26.4587
5.552	-31.9519
5.5525	-35.2478
5.553	-35.7971
5.5535	-35.4309
5.554	-32.5928
5.5545	-21.698
5.555	-33.5083
5.5555	-31.311
5.556	-37.9028
5.5565	-31.9519
5.557	-26.2756
5.5575	-26.9165
5.558	-28.1067
5.5585	-29.3884
5.559	-29.7546
5.5595	-21.9727
5.56	-29.2969
5.5605	-23.3459
5.561	-22.4304
5.5615	-24.9023
5.562	-21.4233
5.5625	-19.8669
5.563	-11.6272
5.5635	-18.4021
5.564	-16.1133
5.5645	-13.5498
5.565	-18.8599
5.5655	-20.9656
5.566	-19.043
5.5665	-11.4441
5.567	-17.8528
5.5675	-22.6135
5.568	-21.3318
5.5685	-25.3601
5.569	-19.3176
5.5695	-14.4653
5.57	-20.9656
5.5705	-20.2332
5.571	-19.8669
5.5715	-13.8245
5.572	-23.4375
5.5725	-18.0359
5.573	-17.8528
5.5735	-17.8528
5.574	-17.3035
5.5745	-11.8103
5.575	-17.395
5.5755	-5.3101
5.576	-3.3875
5.5765	-1.9226
5.577	-13.7329
5.5775	-16.0217
5.578	-10.3455
5.5785	-10.8948
5.579	-18.4021
5.5795	-13.4583
5.58	-15.2893
5.5805	-18.4021
5.581	-26.3672
5.5815	-22.522
5.582	-23.8953
5.5825	-14.0076
5.583	-24.9939
5.5835	-17.7612
5.584	-19.2261
5.5845	-16.0217
5.585	-19.3176
5.5855	-18.0359
5.586	-22.6135
5.5865	-15.1978
5.587	-13.1836
5.5875	-9.3384
5.588	-12.2681
5.5885	-22.522
5.589	-14.3738
5.5895	-10.6201
5.59	-12.2681
5.5905	-13.4583
5.591	-18.3105
5.5915	-19.043
5.592	-13.8245
5.5925	-15.4724
5.593	-12.3596
5.5935	-8.4229
5.594	-6.7749
5.5945	-10.8948
5.595	-9.8877
5.5955	-11.5356
5.596	-15.8386
5.5965	-7.782
5.597	-16.1133
5.5975	-0.2747
5.598	-10.0708
5.5985	-10.3455
5.599	-8.5144
5.5995	-12.085
5.6	-5.2185
5.6005	-10.8948
5.601	-8.1482
5.6015	0.2747
5.602	-6.6833
5.6025	-1.7395
5.603	-10.5286
5.6035	-10.2539
5.604	-1.0071
5.6045	-5.6763
5.605	-5.0354
5.6055	-4.1199
5.606	-7.5989
5.6065	-5.6763
5.607	-3.9368
5.6075	-2.2888
5.608	-1.6479
5.6085	2.0142
5.609	6.134
5.6095	3.8452
5.61	-3.9368
5.6105	-0.4578
5.611	0.7324
5.6115	-5.2185
5.612	5.9509
5.6125	-0.0916
5.613	2.1057
5.6135	4.8523
5.614	2.8381
5.6145	2.5635
5.615	10.1624
5.6155	12.4512
5.616	6.8665
5.6165	6.5918
5.617	17.6697
5.6175	9.2468
5.618	6.134
5.6185	9.7961
5.619	16.3879
5.6195	4.2114
5.62	10.8948
5.6205	3.8452
5.621	9.7046
5.6215	10.8948
5.622	14.0991
5.6225	10.1624
5.623	13.1836
5.6235	5.4016
5.624	-2.2888
5.6245	3.479
5.625	12.7258
5.6255	4.3945
5.626	8.7891
5.6265	8.7891
5.627	12.3596
5.6275	11.9934
5.628	18.5852
5.6285	16.9373
5.629	3.7537
5.6295	13.5498
5.63	17.8528
5.6305	11.1694
5.631	16.0217
5.6315	9.7961
5.632	20.5994
5.6325	10.9863
5.633	14.3738
5.6335	8.0566
5.634	7.9651
5.6345	16.1133
5.635	14.9231
5.6355	16.0217
5.636	13.092
5.6365	19.3176
5.637	20.4163
5.6375	14.9231
5.638	17.6697
5.6385	13.4583
5.639	12.7258
5.6395	10.7117
5.64	19.3176
5.6405	6.6833
5.641	22.8882
5.6415	14.9231
5.642	21.698
5.6425	13.6414
5.643	5.127
5.6435	13.4583
5.644	11.8103
5.6445	14.74
5.645	12.085
5.6455	16.3879
5.646	11.1694
5.6465	8.606
5.647	10.2539
5.6475	17.395
5.648	19.8669
5.6485	15.1978
5.649	10.9863
5.6495	11.9934
5.65	10.1624
5.6505	12.9089
5.651	13.2751
5.6515	14.74
5.652	7.9651
5.6525	15.8386
5.653	13.2751
5.6535	14.5569
5.654	15.9302
5.6545	17.0288
5.655	21.6064
5.6555	14.1907
5.656	18.7683
5.6565	14.6484
5.657	16.3879
5.6575	19.1345
5.658	6.134
5.6585	13.4583
5.659	12.7258
5.6595	16.7542
5.66	15.6555
5.6605	26.6418
5.661	20.2332
5.6615	13.6414
5.662	18.6768
5.6625	15.2893
5.663	14.4653
5.6635	16.8457
5.664	18.7683
5.6645	20.1416
5.665	17.1204
5.6655	17.0288
5.666	20.7825
5.6665	21.7896
5.667	28.0151
5.6675	22.1558
5.668	23.4375
5.6685	23.3459
5.669	27.6489
5.6695	23.8953
5.67	23.5291
5.6705	13.7329
5.671	8.7891
5.6715	11.5356
5.672	20.2332
5.6725	23.8037
5.673	15.0146
5.6735	24.1699
5.674	22.1558
5.6745	25.4517
5.675	17.7612
5.6755	25.5432
5.676	21.7896
5.6765	26.9165
5.677	21.698
5.6775	21.8811
5.678	24.353
5.6785	25.4517
5.679	31.6772
5.6795	18.3105
5.68	30.6702
5.6805	35.5225
5.681	30.304
5.6815	26.4587
5.682	25.5432
5.6825	28.4729
5.683	32.135
5.6835	29.5715
5.684	31.5857
5.6845	28.8391
5.685	22.7051
5.6855	32.0435
5.686	28.9307
5.6865	29.7546
5.687	33.783
5.6875	27.9236
5.688	16.6626
5.6885	22.9797
5.689	19.6838
5.6895	25.5432
5.69	24.1699
5.6905	19.5923
5.691	21.0571
5.6915	14.5569
5.692	27.2827
5.6925	17.0288
5.693	29.1138
5.6935	26.825
5.694	22.7966
5.6945	23.8953
5.695	23.8953
5.6955	10.9863
5.696	20.05
5.6965	18.7683
5.697	17.7612
5.6975	14.2822
5.698	13.3667
5.6985	15.7471
5.699	16.2048
5.6995	20.7825
5.7	19.3176
5.7005	21.4233
5.701	28.1067
5.7015	25.5432
5.702	26.2756
5.7025	23.5291
5.703	16.6626
5.7035	23.3459
5.704	26.1841
5.7045	22.7966
5.705	22.4304
5.7055	14.8315
5.706	28.8391
5.7065	26.9165
5.707	22.4304
5.7075	27.3743
5.708	19.3176
5.7085	14.8315
5.709	20.5994
5.7095	21.8811
5.71	23.9868
5.7105	25.8179
5.711	22.3389
5.7115	28.9307
5.712	29.5715
5.7125	28.2898
5.713	21.698
5.7135	22.7051
5.714	17.5781
5.7145	27.0081
5.715	9.613
5.7155	12.7258
5.716	13.8245
5.7165	5.4016
5.717	5.4016
5.7175	1.0986
5.718	-3.3875
5.7185	3.9368
5.719	16.3879
5.7195	14.3738
5.72	14.5569
5.7205	21.5149
5.721	20.7825
5.7215	28.656
5.722	23.6206
5.7225	17.1204
5.723	25.0854
5.7235	28.5645
5.724	21.1487
5.7245	21.1487
5.725	21.1487
5.7255	28.2898
5.726	28.656
5.7265	26.0925
5.727	29.48
5.7275	14.0991
5.728	19.4092
5.7285	18.3105
5.729	16.2964
5.7295	11.1694
5.73	13.2751
5.7305	14.4653
5.731	15.6555
5.7315	4.8523
5.732	12.6343
5.7325	18.4937
5.733	14.3738
5.7335	17.0288
5.734	19.5007
5.7345	20.4163
5.735	22.1558
5.7355	19.043
5.736	16.2048
5.7365	16.571
5.737	15.8386
5.7375	13.4583
5.738	6.3171
5.7385	15.564
5.739	22.9797
5.7395	21.2402
5.74	11.4441
5.7405	8.4229
5.741	6.134
5.7415	9.0637
5.742	-1.8311
5.7425	6.134
5.743	9.4299
5.7435	4.5776
5.744	6.5002
5.7445	13.092
5.745	10.2539
5.7455	10.5286
5.746	11.7188
5.7465	13.3667
5.747	4.7607
5.7475	-3.9368
5.748	-8.5144
5.7485	-11.1694
5.749	-15.4724
5.7495	-17.8528
5.75	-19.3176
5.7505	-7.6904
5.751	-9.8877
5.7515	-1.3733
5.752	2.655
5.7525	12.2681
5.753	12.3596
5.7535	22.2473
5.754	22.4304
5.7545	20.05
5.755	14.5569
5.7555	17.0288
5.756	4.8523
5.7565	-1.9226
5.757	8.5144
5.7575	-0.824
5.758	8.3313
5.7585	9.3384
5.759	1.7395
5.7595	0.824
5.76	2.4719
5.7605	5.0354
5.761	-5.2185
5.7615	-9.2468
5.762	3.5706
5.7625	6.0425
5.763	17.9443
5.7635	28.2898
5.764	27.0996
5.7645	31.0364
5.765	38.269
5.7655	31.0364
5.766	28.4729
5.7665	10.8948
5.767	-4.6692
5.7675	-19.5007
5.768	-26.4587
5.7685	-26.0925
5.769	-28.9307
5.7695	-25.5432
5.77	-26.4587
5.7705	-18.219
5.771	-15.6555
5.7715	1.7395
5.772	8.0566
5.7725	7.9651
5.773	20.3247
5.7735	15.2893
5.774	9.0637
5.7745	3.2959
5.775	3.2959
5.7755	12.4512
5.776	10.437
5.7765	14.3738
5.777	26.0925
5.7775	55.5725
5.778	79.834
5.7785	92.8345
5.779	106.5674
5.7795	88.1653
5.78	64.7278
5.7805	56.488
5.781	45.0439
5.7815	12.7258
5.782	1.3733
5.7825	-1.9226
5.783	6.134
5.7835	13.092
5.784	13.092
5.7845	-14.8315
5.785	-10.8032
5.7855	-8.5144
5.786	-12.7258
5.7865	-17.395
5.787	-9.7961
5.7875	-14.0076
5.788	-8.2397
5.7885	9.1553
5.789	17.4866
5.7895	18.219
5.79	27.0081
5.7905	53.1006
5.791	56.9458
5.7915	55.7556
5.792	65.3687
5.7925	62.8052
5.793	57.312
5.7935	63.0798
5.794	66.8335
5.7945	79.1931
5.795	82.7637
5.7955	73.6084
5.796	48.6145
5.7965	40.1917
5.797	30.8533
5.7975	33.0505
5.798	30.9448
5.7985	25.8179
5.799	31.311
5.7995	23.8953
5.8	15.6555
5.8005	7.1411
5.801	-3.479
5.8015	-8.1482
5.802	-10.8948
5.8025	-10.8948
5.803	-18.219
5.8035	-2.7466
5.804	1.6479
5.8045	15.1978
5.805	21.5149
5.8055	31.6772
5.806	34.5154
5.8065	34.6069
5.807	20.6909
5.8075	16.8457
5.808	7.2327
5.8085	4.1199
5.809	-6.4087
5.8095	-18.7683
5.81	-22.4304
5.8105	-8.8806
5.811	14.1907
5.8115	39.8254
5.812	67.1997
5.8125	97.9614
5.813	99.7009
5.8135	87.9822
5.814	78.6438
5.8145	66.0095
5.815	55.5725
5.8155	37.9028
5.816	28.1982
5.8165	31.2195
5.817	28.9307
5.8175	26.5503
5.818	26.4587
5.8185	19.8669
5.819	15.4724
5.8195	23.2544
5.82	31.4026
5.8205	19.1345
5.821	29.2053
5.8215	43.4875
5.822	42.1143
5.8225	59.967
5.823	69.4885
5.8235	65.8264
5.824	47.7905
5.8245	52.0935
5.825	41.1987
5.8255	43.396
5.826	47.3328
5.8265	51.6357
5.827	53.7415
5.8275	50.5371
5.828	60.5164
5.8285	67.749
5.829	59.5093
5.8295	49.2554
5.83	41.9312
5.8305	35.0647
5.831	15.564
5.8315	0.1831
5.832	-15.6555
5.8325	-35.0647
5.833	-56.8542
5.8335	-71.6858
5.834	-70.5872
5.8345	-60.4248
5.835	-59.0515
5.8355	-61.0657
5.836	-42.2058
5.8365	-16.9373
5.837	5.8594
5.8375	45.3186
5.838	74.3408
5.8385	86.1511
5.839	108.3069
5.8395	101.0742
5.84	100.5249
5.8405	101.3489
5.841	86.5173
5.8415	82.6721
5.842	69.9463
5.8425	46.7834
5.843	-4.4861
5.8435	-12.3596
5.844	-4.4861
5.8445	15.4724
5.845	27.3743
5.8455	37.262
5.846	53.009
5.8465	72.052
5.847	78.0029
5.8475	89.8132
5.848	70.1294
5.8485	64.4531
5.849	49.8962
5.8495	20.2332
5.85	6.8665
5.8505	-19.1345
5.851	-17.6697
5.8515	-14.9231
5.852	-22.6135
5.8525	-31.7688
5.853	-42.2058
5.8535	-38.5437
5.854	-35.0647
5.8545	-44.0369
5.855	-48.2483
5.8555	-41.1072
5.856	-32.4097
5.8565	-30.2124
5.857	-34.6069
5.8575	-39.7339
5.858	-46.5088
5.8585	-57.7698
5.859	-63.6292
5.8595	-71.6858
5.86	-83.5876
5.8605	-94.4824
5.861	-120.3918
5.8615	-144.2871
5.862	-138.1531
5.8625	-145.1111
5.863	-135.9558
5.8635	-137.0544
5.864	-141.449
5.8645	-145.4773
5.865	-135.2234
5.8655	-137.4207
5.866	-149.8718
5.8665	-143.7378
5.867	-159.0271
5.8675	-159.7595
5.868	-166.626
5.8685	-154.9072
5.869	-152.8931
5.8695	-129.4556
5.87	-102.356
5.8705	-64.5447
5.871	-22.6135
5.8715	5.5847
5.872	-3.2043
5.8725	-20.9656
5.873	-35.4309
5.8735	-56.1218
5.874	-84.2285
5.8745	-116.7297
5.875	-144.2871
5.8755	-141.8152
5.876	-112.1521
5.8765	-74.6155
5.877	-58.96
5.8775	-8.3313
5.878	14.2822
5.8785	30.6702
5.879	22.9797
5.8795	31.5857
5.88	19.5923
5.8805	41.1072
5.881	32.0435
5.8815	17.7612
5.882	30.5786
5.8825	20.7825
5.883	17.7612
5.8835	18.8599
5.884	2.1057
5.8845	6.8665
5.885	9.7961
5.8855	10.1624
5.886	8.3313
5.8865	-5.7678
5.887	21.5149
5.8875	34.9731
5.888	-2.655
5.8885	-40.8325
5.889	-77.7283
5.8895	-92.1936
5.89	-84.7778
5.8905	-92.7429
5.891	-181.5491
5.8915	-222.5647
5.892	-249.115
5.8925	-262.2986
5.893	-248.0164
5.8935	-221.283
5.894	-159.3018
5.8945	-97.3206
5.895	11.9934
5.8955	103.5461
5.896	173.584
5.8965	182.5562
5.897	185.9436
5.8975	162.0483
5.898	144.2871
5.8985	95.7642
5.899	60.6079
5.8995	21.7896
5.9	-27.7405
5.9005	-47.4243
5.901	-28.0151
5.9015	1.7395
5.902	12.2681
5.9025	25.177
5.903	32.135
5.9035	51.9104
5.904	87.0667
5.9045	109.7717
5.905	128.1738
5.9055	142.9138
5.906	145.2942
5.9065	109.314
5.907	81.3904
5.9075	55.6641
5.908	37.1704
5.9085	1.0986
5.909	-21.9727
5.9095	-24.9023
5.91	-9.3384
5.9105	-22.7966
5.911	-38.269
5.9115	-42.2058
5.912	-64.7278
5.9125	-128.9978
5.913	-185.3027
5.9135	-226.2268
5.914	-198.9441
5.9145	-199.4934
5.915	-200.4089
5.9155	-247.467
5.916	-248.9319
5.9165	-189.2395
5.917	-124.3286
5.9175	-60.1501
5.918	15.7471
5.9185	44.1284
5.919	65.094
5.9195	113.7085
5.92	90.9119
5.9205	84.5947
5.921	70.7703
5.9215	38.5437
5.922	43.3044
5.9225	105.3772
5.923	144.1956
5.9235	63.7207
5.924	-18.219
5.9245	-153.0762
5.925	-283.7219
5.9255	-375.0916
5.926	-474.7009
5.9265	-482.0251
5.927	-398.8037
5.9275	-345.3369
5.928	-268.8904
5.9285	-132.5684
5.929	14.3738
5.9295	152.8015
5.93	326.4771
5.9305	387.2681
5.931	386.3525
5.9315	316.3147
5.932	242.5232
5.9325	131.8359
5.933	-3.3875
5.9335	-166.1682
5.934	-274.8413
5.9345	-428.9246
5.935	-551.7883
5.9355	-523.2239
5.936	-412.9028
5.9365	-311.554
5.937	-253.6011
5.9375	-149.4141
5.938	-54.657
5.9385	4.3945
5.939	20.4163
5.9395	48.6145
5.94	181.7322
5.9405	321.0754
5.941	347.168
5.9415	282.6233
5.942	146.759
5.9425	-86.1511
5.943	-342.865
5.9435	-522.0337
5.944	-601.8677
5.9445	-496.2158
5.945	-297.3633
5.9455	-0.6409
5.946	254.2419
5.9465	595.7336
5.947	818.0237
5.9475	878.1738
5.948	995.5444
5.9485	1053.0396
5.949	948.0286
5.9495	665.0391
5.95	379.6692
5.9505	225.0366
5.951	64.7278
5.9515	-101.2573
5.952	-248.4741
5.9525	-327.1179
5.953	-317.2302
5.9535	-206.6345
5.954	-48.2483
5.9545	129.364
5.955	296.814
5.9555	447.7844
5.956	507.2937
5.9565	540.0696
5.957	547.4854
5.9575	479.9194
5.958	299.469
5.9585	167.8162
5.959	96.2219
5.9595	36.8958
5.96	-19.1345
5.9605	-52.3682
5.961	-61.2488
5.9615	-75.1648
5.962	-94.4824
5.9625	-127.7161
5.963	-136.5051
5.9635	-156.9214
5.964	-184.2041
5.9645	-205.1697
5.965	-218.7195
5.9655	-223.8464
5.966	-229.3396
5.9665	-235.5652
5.967	-249.2065
5.9675	-261.2
5.968	-284.6375
5.9685	-304.1382
5.969	-376.8311
5.9695	-469.2993
5.97	-592.804
5.9705	-635.6506
5.971	-667.8772
5.9715	-676.5747
5.972	-610.6567
5.9725	-534.7595
5.973	-421.051
5.9735	-294.9829
5.974	-179.9011
5.9745	-139.8926
5.975	-222.3816
5.9755	-267.9749
5.976	-334.4421
5.9765	-408.1421
5.977	-438.9954
5.9775	-456.2988
5.978	-410.8887
5.9785	-251.1292
5.979	30.2124
5.9795	328.949
5.98	496.8567
5.9805	600.2197
5.981	673.0957
5.9815	722.6257
5.982	682.0679
5.9825	597.0154
5.983	484.7717
5.9835	385.5286
5.984	243.4387
5.9845	113.7085
5.985	14.6484
5.9855	-6.5918
5.986	-30.7617
5.9865	-34.3323
5.987	26.825
5.9875	67.2913
5.988	126.9836
5.9885	178.5278
5.989	214.8743
5.9895	225.8606
5.99	224.9451
5.9905	220.1843
5.991	129.2725
5.9915	9.0637
5.992	-68.2068
5.9925	-85.6018
5.993	-165.802
5.9935	-246.0938
5.994	-307.5256
5.9945	-322.5403
5.995	-329.9561
5.9955	-344.2383
5.996	-326.7517
5.9965	-295.99
5.997	-248.3826
5.9975	-186.3098
5.998	-116.1804
5.9985	-31.0364
5.999	49.3469
5.9995	118.103
6	158.9355
6.0005	109.9548
6.001	6.4087
6.0015	-54.657
6.002	-122.8638
6.0025	-209.198
6.003	-219.4519
6.0035	-195.1904
6.004	-167.45
6.0045	-125.7935
6.005	-107.5745
6.0055	-62.2559
6.006	-9.613
6.0065	64.1785
6.007	129.5471
6.0075	152.6184
6.008	211.2122
6.0085	240.3259
6.009	266.1438
6.0095	275.116
6.01	297.6379
6.0105	329.1321
6.011	314.9414
6.0115	297.6379
6.012	299.7437
6.0125	327.8503
6.013	321.991
6.0135	297.4548
6.014	240.509
6.0145	185.5774
6.015	135.0403
6.0155	109.4055
6.016	69.9463
6.0165	35.3394
6.017	24.1699
6.0175	7.1411
6.018	0
6.0185	-20.7825
6.019	-27.1912
6.0195	-31.2195
6.02	-31.9519
6.0205	-41.2903
6.021	-45.4102
6.0215	-41.748
6.022	-51.0864
6.0225	-55.5725
6.023	-61.5234
6.0235	-62.8967
6.024	-60.8826
6.0245	-72.4182
6.025	-80.9326
6.0255	-80.2002
6.026	-75.7141
6.0265	-74.8901
6.027	-87.9822
6.0275	-91.6443
6.028	-94.9402
6.0285	-89.447
6.029	-80.3833
6.0295	-84.6863
6.03	-88.7146
6.0305	-83.9539
6.031	-76.7212
6.0315	-75.3479
6.032	-74.8901
6.0325	-68.6646
6.033	-65.8264
6.0335	-75.0732
6.034	-67.8406
6.0345	-66.8335
6.035	-56.1218
6.0355	-52.4597
6.036	-53.1921
6.0365	-49.8962
6.037	-48.1567
6.0375	-36.0718
6.038	-35.2478
6.0385	-36.3464
6.039	-30.5786
6.0395	-25.3601
6.04	-25.9094
6.0405	-27.1912
6.041	-26.0925
6.0415	-21.698
6.042	-15.3809
6.0425	-12.085
6.043	-8.0566
6.0435	-12.5427
6.044	-3.5706
6.0445	-4.5776
6.045	-3.8452
6.0455	-1.6479
6.046	-3.2043
6.0465	2.5635
6.047	-13.916
6.0475	-13.916
6.048	-8.8806
6.0485	-11.4441
6.049	-12.6343
6.0495	-6.5918
6.05	-5.9509
6.0505	-8.9722
6.051	-11.8103
6.0515	-10.7117
6.052	-9.613
6.0525	-7.4158
6.053	-2.655
6.0535	-4.8523
6.054	-10.8032
6.0545	-10.5286
6.055	-11.6272
6.0555	-14.9231
6.056	-10.0708
6.0565	-10.6201
6.057	-4.5776
6.0575	-3.2043
6.058	-6.0425
6.0585	-8.8806
6.059	-0.7324
6.0595	8.3313
6.06	-0.2747
6.0605	-1.5564
6.061	-2.2888
6.0615	-8.5144
6.062	-9.4299
6.0625	-4.5776
6.063	-6.5918
6.0635	-4.5776
6.064	1.3733
6.0645	-4.0283
6.065	3.2959
6.0655	-5.9509
6.066	-9.613
6.0665	-15.9302
6.067	-14.9231
6.0675	-22.6135
6.068	-20.3247
6.0685	-11.0779
6.069	-4.2114
6.0695	-3.8452
6.07	4.3945
6.0705	-1.5564
6.071	0.1831
6.0715	2.8381
6.072	2.8381
6.0725	-3.7537
6.073	1.1902
6.0735	-6.4087
6.074	-5.7678
6.0745	-5.8594
6.075	-5.9509
6.0755	-14.0076
6.076	-8.5144
6.0765	-5.5847
6.077	-6.5002
6.0775	-10.5286
6.078	-10.9863
6.0785	-1.3733
6.079	4.3945
6.0795	2.4719
6.08	2.9297
6.0805	2.8381
6.081	-2.0142
6.0815	-3.3875
6.082	-4.7607
6.0825	-7.782
6.083	3.0212
6.0835	1.0071
6.084	-1.0071
6.0845	-3.2043
6.085	-2.8381
6.0855	1.9226
6.086	-10.8948
6.0865	-10.9863
6.087	-3.2043
6.0875	-8.5144
6.088	-8.2397
6.0885	-9.5215
6.089	-11.9019
6.0895	-4.1199
6.09	-8.8806
6.0905	-3.7537
6.091	-12.2681
6.0915	-11.261
6.092	-14.3738
6.0925	-10.7117
6.093	-10.3455
6.0935	-12.1765
6.094	-19.6838
6.0945	-13.5498
6.095	-15.8386
6.0955	-5.8594
6.096	-6.3171
6.0965	-9.0637
6.097	-13.3667
6.0975	-4.8523
6.098	-8.0566
6.0985	-7.8735
6.099	-12.6343
6.0995	-5.4016
6.1	0.9155
6.1005	-5.9509
6.101	1.5564
6.1015	-0.0916
6.102	-2.3804
6.1025	2.5635
6.103	6.2256
6.1035	4.9438
6.104	0.9155
6.1045	1.7395
6.105	2.1057
6.1055	0.9155
6.106	-3.0212
6.1065	-4.8523
6.107	-9.2468
6.1075	-3.7537
6.108	-1.8311
6.1085	-13.6414
6.109	-14.0076
6.1095	-21.1487
6.11	-17.4866
6.1105	-18.3105
6.111	-17.8528
6.1115	-19.5923
6.112	-18.6768
6.1125	-22.4304
6.113	-15.4724
6.1135	-23.1628
6.114	-26.9165
6.1145	-29.8462
6.115	-33.5999
6.1155	-29.7546
6.116	-27.0996
6.1165	-29.5715
6.117	-29.2969
6.1175	-36.5295
6.118	-24.7192
6.1185	-30.5786
6.119	-34.6985
6.1195	-28.3813
6.12	-33.6914
6.1205	-28.8391
6.121	-26.0925
6.1215	-19.4092
6.122	-14.8315
6.1225	-12.2681
6.123	-9.4299
6.1235	-16.2048
6.124	-16.7542
6.1245	-16.571
6.125	-6.3171
6.1255	-6.0425
6.126	-6.0425
6.1265	-9.2468
6.127	-7.6904
6.1275	-3.0212
6.128	-1.3733
6.1285	-6.7749
6.129	-1.5564
6.1295	-1.4648
6.13	-2.4719
6.1305	5.4016
6.131	-4.8523
6.1315	3.8452
6.132	1.9226
6.1325	1.0986
6.133	-0.6409
6.1335	-8.2397
6.134	0
6.1345	-4.1199
6.135	-0.2747
6.1355	5.6763
6.136	1.7395
6.1365	6.134
6.137	-0.5493
6.1375	7.782
6.138	0.0916
6.1385	5.3101
6.139	-0.3662
6.1395	10.5286
6.14	8.9722
6.1405	16.0217
6.141	8.8806
6.1415	6.8665
6.142	14.0076
6.1425	11.9019
6.143	10.9863
6.1435	17.3035
6.144	13.1836
6.1445	16.0217
6.145	7.1411
6.1455	6.5918
6.146	8.8806
6.1465	5.4932
6.147	11.3525
6.1475	17.1204
6.148	17.7612
6.1485	15.3809
6.149	9.8877
6.1495	6.5002
6.15	7.2327
6.1505	-2.4719
6.151	9.9792
6.1515	3.2043
6.152	10.2539
6.1525	4.6692
6.153	-2.0142
6.1535	2.1973
6.154	3.5706
6.1545	6.8665
6.155	9.4299
6.1555	11.1694
6.156	13.0005
6.1565	3.9368
6.157	4.9438
6.1575	6.134
6.158	12.5427
6.1585	2.1057
6.159	9.2468
6.1595	3.3875
6.16	10.3455
6.1605	7.9651
6.161	8.6975
6.1615	5.7678
6.162	11.6272
6.1625	12.6343
6.163	3.9368
6.1635	15.2893
6.164	9.5215
6.1645	8.5144
6.165	4.6692
6.1655	10.0708
6.166	3.7537
6.1665	9.2468
6.167	4.9438
6.1675	0.7324
6.168	12.2681
6.1685	3.9368
6.169	5.5847
6.1695	0.0916
6.17	-0.0916
6.1705	-4.2114
6.171	0
6.1715	5.0354
6.172	-2.1973
6.1725	-1.1902
6.173	-2.1973
6.1735	4.6692
6.174	3.0212
6.1745	6.4087
6.175	0.6409
6.1755	3.479
6.176	-8.5144
6.1765	-1.4648
6.177	0.7324
6.1775	-6.2256
6.178	-8.1482
6.1785	-4.4861
6.179	-5.2185
6.1795	-6.5002
6.18	-9.2468
6.1805	-4.1199
6.181	4.5776
6.1815	-3.2043
6.182	1.2817
6.1825	-4.0283
6.183	-10.6201
6.1835	-12.4512
6.184	-16.2048
6.1845	-7.6904
6.185	-5.9509
6.1855	-7.6904
6.186	-1.0071
6.1865	-2.2888
6.187	2.1973
6.1875	-0.0916
6.188	-3.3875
6.1885	-4.303
6.189	-5.5847
6.1895	-6.8665
6.19	-6.0425
6.1905	-5.7678
6.191	-6.0425
6.1915	-7.4158
6.192	-6.5002
6.1925	-10.8032
6.193	-0.6409
6.1935	-1.8311
6.194	6.8665
6.1945	7.2327
6.195	6.6833
6.1955	3.9368
6.196	-10.0708
6.1965	-0.2747
6.197	0
6.1975	-2.9297
6.198	-5.6763
6.1985	-14.0076
6.199	-6.7749
6.1995	-6.134
6.2	-7.9651
6.2005	-16.9373
6.201	-10.9863
6.2015	-17.5781
6.202	-15.7471
6.2025	-11.4441
6.203	-12.1765
6.2035	-21.3318
6.204	-22.3389
6.2045	-24.7192
6.205	-20.5994
6.2055	-23.3459
6.206	-25.2686
6.2065	-9.9792
6.207	-13.5498
6.2075	-12.3596
6.208	-19.8669
6.2085	-9.7961
6.209	-14.4653
6.2095	-15.564
6.21	-20.5994
6.2105	-21.7896
6.211	-24.2615
6.2115	-21.2402
6.212	-26.825
6.2125	-26.825
6.213	-27.6489
6.2135	-19.7754
6.214	-20.2332
6.2145	-25.9094
6.215	-24.2615
6.2155	-31.1279
6.216	-35.614
6.2165	-27.9236
6.217	-27.9236
6.2175	-42.2058
6.218	-32.135
6.2185	-29.0222
6.219	-30.1208
6.2195	-32.5012
6.22	-34.6069
6.2205	-32.5928
6.221	-27.9236
6.2215	-29.3884
6.222	-31.4941
6.2225	-39.2761
6.223	-36.8958
6.2235	-41.6565
6.224	-36.3464
6.2245	-40.9241
6.225	-47.8821
6.2255	-44.1284
6.226	-36.1633
6.2265	-39.093
6.227	-47.2412
6.2275	-37.4451
6.228	-42.7551
6.2285	-37.5366
6.229	-41.1072
6.2295	-39.3677
6.23	-42.6636
6.2305	-40.0085
6.231	-46.051
6.2315	-31.9519
6.232	-40.9241
6.2325	-31.2195
6.233	-31.0364
6.2335	-35.2478
6.234	-33.783
6.2345	-42.3889
6.235	-33.783
6.2355	-37.6282
6.236	-32.2266
6.2365	-37.262
6.237	-38.3606
6.2375	-37.8113
6.238	-38.9099
6.2385	-38.9099
6.239	-40.8325
6.2395	-37.0789
6.24	-38.5437
6.2405	-38.8184
6.241	-39.1846
6.2415	-36.8958
6.242	-36.3464
6.2425	-37.6282
6.243	-34.3323
6.2435	-41.1072
6.244	-43.1213
6.2445	-37.9944
6.245	-32.6843
6.2455	-29.1138
6.246	-26.0925
6.2465	-36.2549
6.247	-38.9099
6.2475	-37.262
6.248	-41.4734
6.2485	-39.3677
6.249	-42.2058
6.2495	-40.9241
6.25	-44.1284
6.2505	-39.2761
6.251	-43.5791
6.2515	-40.9241
6.252	-29.0222
6.2525	-34.8816
6.253	-33.4167
6.2535	-35.2478
6.254	-41.4734
6.2545	-42.9382
6.255	-43.1213
6.2555	-38.1775
6.256	-42.7551
6.2565	-47.1497
6.257	-41.3818
6.2575	-46.051
6.258	-48.4314
6.2585	-40.741
6.259	-39.3677
6.2595	-48.0652
6.26	-41.9312
6.2605	-48.7061
6.261	-41.1072
6.2615	-46.7834
6.262	-35.9802
6.2625	-43.6707
6.263	-50.9949
6.2635	-46.5088
6.264	-39.7339
6.2645	-44.9524
6.265	-40.8325
6.2655	-31.6772
6.266	-38.0859
6.2665	-45.7764
6.267	-38.9099
6.2675	-42.9382
6.268	-41.1072
6.2685	-49.6216
6.269	-39.093
6.2695	-39.6423
6.27	-41.4734
6.2705	-41.5649
6.271	-43.0298
6.2715	-37.8113
6.272	-35.5225
6.2725	-35.0647
6.273	-33.6914
6.2735	-36.7126
6.274	-38.4521
6.2745	-40.1001
6.275	-37.8113
6.2755	-44.4031
6.276	-43.0298
6.2765	-49.8047
6.277	-50.9949
6.2775	-54.3823
6.278	-35.9802
6.2785	-43.1213
6.279	-47.6074
6.2795	-53.009
6.28	-52.8259
6.2805	-52.8259
6.281	-45.4102
6.2815	-49.8047
6.282	-47.4243
6.2825	-44.0369
6.283	-47.5159
6.2835	-50.9949
6.284	-51.3611
6.2845	-45.5017
6.285	-43.0298
6.2855	-40.8325
6.286	-39.5508
6.2865	-41.1072
6.287	-34.3323
6.2875	-35.9802
6.288	-31.4026
6.2885	-30.6702
6.289	-38.5437
6.2895	-29.2053
6.29	-29.2969
6.2905	-32.8674
6.291	-20.5994
6.2915	-20.4163
6.292	-21.698
6.2925	-16.7542
6.293	-18.219
6.2935	-23.5291
6.294	-24.6277
6.2945	-28.8391
6.295	-27.5574
6.2955	-26.825
6.296	-27.9236
6.2965	-27.9236
6.297	-22.9797
6.2975	-23.8037
6.298	-16.9373
6.2985	-25.5432
6.299	-17.7612
6.2995	-18.7683
6.3	-18.0359
6.3005	-24.8108
6.301	-21.3318
6.3015	-21.1487
6.302	-23.0713
6.3025	-15.7471
6.303	-21.3318
6.3035	-19.4092
6.304	-17.7612
6.3045	-15.0146
6.305	-22.0642
6.3055	-11.4441
6.306	-14.74
6.3065	-16.2048
6.307	-15.3809
6.3075	-13.6414
6.308	-10.3455
6.3085	-17.7612
6.309	-16.1133
6.3095	-24.2615
6.31	-18.1274
6.3105	-14.3738
6.311	-12.3596
6.3115	-11.9934
6.312	-8.1482
6.3125	-15.8386
6.313	-21.0571
6.3135	-16.2048
6.314	-20.5994
6.3145	-23.3459
6.315	-14.9231
6.3155	-23.6206
6.316	-15.8386
6.3165	-19.9585
6.317	-13.7329
6.3175	-23.3459
6.318	-12.6343
6.3185	-15.6555
6.319	-17.4866
6.3195	-13.7329
6.32	-20.7825
6.3205	-24.4446
6.321	-17.3035
6.3215	-15.1062
6.322	-13.7329
6.3225	-25.9094
6.323	-14.3738
6.3235	-15.3809
6.324	-4.6692
6.3245	-12.085
6.325	-10.437
6.3255	-10.1624
6.326	-11.8103
6.3265	-6.958
6.327	-8.1482
6.3275	-8.7891
6.328	-10.6201
6.3285	-5.0354
6.329	-14.74
6.3295	-6.4087
6.33	2.2888
6.3305	-1.8311
6.331	-4.9438
6.3315	-11.0779
6.332	-3.0212
6.3325	-1.5564
6.333	-0.5493
6.3335	-4.5776
6.334	-8.1482
6.3345	-4.1199
6.335	-1.4648
6.3355	-2.655
6.336	4.4861
6.3365	9.613
6.337	3.1128
6.3375	0.4578
6.338	0.2747
6.3385	3.9368
6.339	-1.5564
6.3395	-0.1831
6.34	-1.9226
6.3405	-0.5493
6.341	-1.0071
6.3415	-4.5776
6.342	4.8523
6.3425	-4.303
6.343	4.1199
6.3435	0.824
6.344	2.1057
6.3445	-3.7537
6.345	0.2747
6.3455	-1.1902
6.346	1.6479
6.3465	1.3733
6.347	4.2114
6.3475	1.7395
6.348	7.9651
6.3485	5.2185
6.349	0.0916
6.3495	7.782
6.35	5.5847
6.3505	-4.4861
6.351	8.2397
6.3515	-2.8381
6.352	2.7466
6.3525	8.2397
6.353	8.6975
6.3535	6.3171
6.354	7.1411
6.3545	3.5706
6.355	3.1128
6.3555	2.8381
6.356	-0.4578
6.3565	10.5286
6.357	4.5776
6.3575	3.7537
6.358	9.1553
6.3585	9.9792
6.359	6.5002
6.3595	9.3384
6.36	8.0566
6.3605	6.134
6.361	2.655
6.3615	8.7891
6.362	10.5286
6.3625	9.2468
6.363	-1.9226
6.3635	1.0986
6.364	13.3667
6.3645	13.1836
6.365	8.1482
6.3655	1.0986
6.366	11.1694
6.3665	5.4932
6.367	5.2185
6.3675	6.2256
6.368	7.2327
6.3685	15.0146
6.369	13.3667
6.3695	14.8315
6.37	17.4866
6.3705	21.698
6.371	20.5994
6.3715	12.1765
6.372	11.1694
6.3725	9.0637
6.373	11.6272
6.3735	6.8665
6.374	7.5989
6.3745	11.261
6.375	9.9792
6.3755	6.7749
6.376	13.4583
6.3765	10.8948
6.377	11.3525
6.3775	7.5989
6.378	10.8032
6.3785	11.1694
6.379	5.127
6.3795	8.3313
6.38	7.3242
6.3805	6.6833
6.381	5.2185
6.3815	5.7678
6.382	17.3035
6.3825	18.7683
6.383	20.4163
6.3835	9.7961
6.384	15.7471
6.3845	12.1765
6.385	16.1133
6.3855	6.8665
6.386	11.1694
6.3865	2.1057
6.387	7.4158
6.3875	17.4866
6.388	10.437
6.3885	9.7046
6.389	13.092
6.3895	10.7117
6.39	8.6975
6.3905	12.6343
6.391	18.219
6.3915	6.8665
6.392	5.7678
6.3925	14.8315
6.393	19.3176
6.3935	14.4653
6.394	10.8948
6.3945	13.092
6.395	18.219
6.3955	16.7542
6.396	18.1274
6.3965	20.05
6.397	25.177
6.3975	17.1204
6.398	16.2964
6.3985	9.9792
6.399	14.8315
6.3995	14.4653
6.4	15.6555
6.4005	15.7471
6.401	14.9231
6.4015	23.7122
6.402	16.6626
6.4025	20.05
6.403	17.6697
6.4035	24.5361
6.404	26.001
6.4045	13.1836
6.405	24.0784
6.4055	20.9656
6.406	18.4021
6.4065	20.3247
6.407	16.6626
6.4075	17.0288
6.408	22.4304
6.4085	23.3459
6.409	20.05
6.4095	20.1416
6.41	16.7542
6.4105	14.1907
6.411	17.3035
6.4115	17.2119
6.412	17.0288
6.4125	15.3809
6.413	15.4724
6.4135	24.4446
6.414	19.8669
6.4145	27.9236
6.415	23.0713
6.4155	21.5149
6.416	24.7192
6.4165	24.8108
6.417	23.6206
6.4175	27.0996
6.418	20.5994
6.4185	23.3459
6.419	23.8953
6.4195	25.4517
6.42	21.8811
6.4205	27.0996
6.421	18.9514
6.4215	17.2119
6.422	24.9939
6.4225	21.7896
6.423	25.7263
6.4235	20.05
6.424	22.8882
6.4245	22.1558
6.425	24.0784
6.4255	19.3176
6.426	30.304
6.4265	25.6348
6.427	24.9939
6.4275	25.0854
6.428	20.9656
6.4285	27.0081
6.429	30.9448
6.4295	28.1982
6.43	28.8391
6.4305	35.4309
6.431	24.4446
6.4315	26.1841
6.432	17.395
6.4325	26.2756
6.433	26.6418
6.4335	21.1487
6.434	32.135
6.4345	24.8108
6.435	31.2195
6.4355	29.5715
6.436	23.3459
6.4365	27.0996
6.437	16.4795
6.4375	22.7051
6.438	29.2053
6.4385	36.2549
6.439	30.1208
6.4395	30.6702
6.44	26.825
6.4405	25.177
6.441	29.3884
6.4415	25.4517
6.442	22.522
6.4425	11.5356
6.443	11.6272
6.4435	10.8032
6.444	13.4583
6.4445	17.6697
6.445	17.6697
6.4455	21.1487
6.446	23.8953
6.4465	31.0364
6.447	29.9377
6.4475	37.3535
6.448	32.0435
6.4485	30.8533
6.449	35.4309
6.4495	27.5574
6.45	28.5645
6.4505	28.5645
6.451	18.7683
6.4515	20.1416
6.452	14.74
6.4525	12.7258
6.453	10.5286
6.4535	10.7117
6.454	7.9651
6.4545	11.5356
6.455	6.134
6.4555	-0.1831
6.456	-6.134
6.4565	-7.782
6.457	-8.9722
6.4575	1.3733
6.458	-0.7324
6.4585	-6.4087
6.459	2.1057
6.4595	-2.2888
6.46	9.8877
6.4605	17.1204
6.461	16.3879
6.4615	33.5999
6.462	38.8184
6.4625	43.396
6.463	49.2554
6.4635	53.1921
6.464	49.6216
6.4645	48.2483
6.465	47.3328
6.4655	40.1917
6.466	39.2761
6.4665	30.8533
6.467	22.2473
6.4675	15.1978
6.468	5.2185
6.4685	4.3945
6.469	1.5564
6.4695	1.6479
6.47	7.5073
6.4705	7.3242
6.471	7.6904
6.4715	3.8452
6.472	15.2893
6.4725	7.5989
6.473	15.2893
6.4735	-2.2888
6.474	-3.9368
6.4745	-18.219
6.475	-22.7966
6.4755	-22.1558
6.476	-9.7046
6.4765	4.4861
6.477	6.5918
6.4775	19.2261
6.478	32.2266
6.4785	46.051
6.479	46.7834
6.4795	49.3469
6.48	36.1633
6.4805	33.2336
6.481	19.5923
6.4815	5.5847
6.482	3.5706
6.4825	6.8665
6.483	12.6343
6.4835	22.7051
6.484	21.4233
6.4845	7.0496
6.485	5.0354
6.4855	-2.8381
6.486	3.0212
6.4865	0.7324
6.487	-0.4578
6.4875	-1.2817
6.488	13.4583
6.4885	29.2053
6.489	22.522
6.4895	40.5579
6.49	35.4309
6.4905	42.8467
6.491	38.8184
6.4915	19.9585
6.492	25.9094
6.4925	27.2827
6.493	7.1411
6.4935	-7.0496
6.494	5.4016
6.4945	3.7537
6.495	3.1128
6.4955	-2.2888
6.496	14.1907
6.4965	21.7896
6.497	20.5994
6.4975	37.6282
6.498	55.5725
6.4985	72.7844
6.499	87.3413
6.4995	82.489
6.5	64.5447
6.5005	35.8887
6.501	6.6833
6.5015	-28.1067
6.502	-53.9246
6.5025	-67.2913
6.503	-93.9331
6.5035	-111.4197
6.504	-113.6169
6.5045	-104.0039
6.505	-97.1375
6.5055	-53.833
6.506	-39.4592
6.5065	-1.2817
6.507	17.8528
6.5075	32.5928
6.508	50.0793
6.5085	83.7708
6.509	99.9756
6.5095	115.5396
6.51	112.8845
6.5105	96.405
6.511	67.2913
6.5115	55.8472
6.512	43.1213
6.5125	29.9377
6.513	26.2756
6.5135	18.5852
6.514	24.6277
6.5145	29.2969
6.515	57.7698
6.5155	86.9751
6.516	103.5461
6.5165	116.272
6.517	89.6301
6.5175	75.2563
6.518	53.3752
6.5185	21.5149
6.519	12.5427
6.5195	20.4163
6.52	13.092
6.5205	4.303
6.521	-1.3733
6.5215	-0.6409
6.522	14.3738
6.5225	20.1416
6.523	30.7617
6.5235	33.9661
6.524	43.3044
6.5245	52.1851
6.525	73.3337
6.5255	94.0247
6.526	96.3135
6.5265	87.2498
6.527	75.0732
6.5275	61.5234
6.528	57.8613
6.5285	53.1921
6.529	61.4319
6.5295	72.1436
6.53	64.3616
6.5305	64.27
6.531	53.6499
6.5315	56.9458
6.532	55.7556
6.5325	37.9944
6.533	20.7825
6.5335	22.7966
6.534	3.9368
6.5345	-13.2751
6.535	-14.5569
6.5355	-16.8457
6.536	-21.5149
6.5365	-19.5007
6.537	-25.4517
6.5375	-47.3328
6.538	-65.6433
6.5385	-68.0237
6.539	-56.5796
6.5395	-34.8816
6.54	-25.9094
6.5405	-17.3035
6.541	-4.1199
6.5415	13.092
6.542	18.0359
6.5425	15.4724
6.543	3.0212
6.5435	1.0071
6.544	-9.2468
6.5445	-10.7117
6.545	-5.9509
6.5455	7.8735
6.546	0.824
6.5465	4.2114
6.547	-10.7117
6.5475	-19.7754
6.548	-27.0996
6.5485	-14.4653
6.549	1.7395
6.5495	21.1487
6.55	36.8958
6.5505	50.7202
6.551	74.9817
6.5515	74.2493
6.552	80.9326
6.5525	76.355
6.553	67.749
6.5535	77.179
6.554	94.3909
6.5545	97.6868
6.555	98.7854
6.5555	83.4045
6.556	77.7283
6.5565	61.7065
6.557	56.9458
6.5575	72.3267
6.558	83.1299
6.5585	112.7014
6.559	126.4343
6.5595	132.1106
6.56	117.0959
6.5605	93.2007
6.561	68.0237
6.5615	47.1497
6.562	32.135
6.5625	30.304
6.563	34.6069
6.5635	62.1643
6.564	51.4526
6.5645	33.4167
6.565	41.6565
6.5655	48.7976
6.566	50.7202
6.5665	52.6428
6.567	63.6292
6.5675	49.7131
6.568	43.396
6.5685	14.4653
6.569	-15.2893
6.5695	-48.8892
6.57	-68.6646
6.5705	-101.2573
6.571	-132.9346
6.5715	-157.3792
6.572	-176.9714
6.5725	-151.1536
6.573	-121.3074
6.5735	-50.8118
6.574	8.6975
6.5745	72.3267
6.575	120.2087
6.5755	137.97
6.576	135.3149
6.5765	133.9417
6.577	127.2583
6.5775	119.3848
6.578	104.0955
6.5785	100.4333
6.579	93.2922
6.5795	79.7424
6.58	41.2903
6.5805	15.7471
6.581	5.5847
6.5815	-18.4021
6.582	-33.783
6.5825	-43.6707
6.583	-40.741
6.5835	-36.8958
6.584	-15.6555
6.5845	4.4861
6.585	10.5286
6.5855	1.0071
6.586	-29.6631
6.5865	-57.2205
6.587	-68.9392
6.5875	-64.27
6.588	-60.0586
6.5885	-26.6418
6.589	-16.0217
6.5895	-7.2327
6.59	4.6692
6.5905	14.74
6.591	28.3813
6.5915	39.3677
6.592	33.8745
6.5925	1.7395
6.593	-18.3105
6.5935	-42.0227
6.594	-51.7273
6.5945	-78.9185
6.595	-98.5107
6.5955	-133.8501
6.596	-165.1611
6.5965	-182.6477
6.597	-234.8328
6.5975	-272.3694
6.598	-295.166
6.5985	-291.9617
6.599	-284.3628
6.5995	-274.1089
6.6	-213.9587
6.6005	-132.9346
6.601	-50.5371
6.6015	29.6631
6.602	88.5315
6.6025	128.8147
6.603	166.7175
6.6035	187.0422
6.604	199.8596
6.6045	157.3792
6.605	115.6311
6.6055	111.6943
6.606	91.095
6.6065	31.2195
6.607	-40.3748
6.6075	-84.4116
6.608	-119.2932
6.6085	-134.8572
6.609	-115.8142
6.6095	-96.7712
6.61	-99.3347
6.6105	-123.6877
6.611	-157.4707
6.6115	-158.6609
6.612	-162.5977
6.6125	-141.449
6.613	-106.6589
6.6135	-63.0798
6.614	-18.4021
6.6145	33.2336
6.615	83.7708
6.6155	108.0322
6.616	88.623
6.6165	63.6292
6.617	17.7612
6.6175	-46.1426
6.618	-114.4409
6.6185	-163.9709
6.619	-190.155
6.6195	-242.7063
6.62	-276.3062
6.6205	-276.5808
6.621	-296.7224
6.6215	-284.9121
6.622	-271.8201
6.6225	-253.1433
6.623	-174.3164
6.6235	-68.8477
6.624	-16.571
6.6245	-24.2615
6.625	-69.4885
6.6255	-67.9321
6.626	-61.4319
6.6265	-15.8386
6.627	23.5291
6.6275	54.4739
6.628	102.9968
6.6285	167.7246
6.629	234.4666
6.6295	326.5686
6.63	385.9863
6.6305	351.8372
6.631	265.7776
6.6315	177.6123
6.632	157.5623
6.6325	144.4702
6.633	143.9209
6.6335	119.2932
6.634	59.967
6.6345	89.5386
6.635	64.1785
6.6355	37.4451
6.636	-19.4092
6.6365	-48.7976
6.637	-93.6584
6.6375	-105.3772
6.638	-120.6665
6.6385	-151.886
6.639	-175.3235
6.6395	-254.1504
6.64	-334.5337
6.6405	-401.001
6.641	-393.4021
6.6415	-346.0693
6.642	-288.6658
6.6425	-256.073
6.643	-215.6067
6.6435	-133.3923
6.644	-54.657
6.6445	29.8462
6.645	66.1926
6.6455	76.355
6.646	63.2629
6.6465	33.9661
6.647	-46.6003
6.6475	-162.0483
6.648	-291.0461
6.6485	-423.9807
6.649	-477.9968
6.6495	-412.9028
6.65	-303.4973
6.6505	-288.208
6.651	-277.771
6.6515	-226.2268
6.652	-202.3315
6.6525	-143.28
6.653	-59.6924
6.6535	-16.0217
6.654	-24.9939
6.6545	-83.0383
6.655	-159.5764
6.6555	-210.1135
6.656	-205.1697
6.6565	-149.8718
6.657	-116.1804
6.6575	12.7258
6.658	176.4221
6.6585	365.387
6.659	532.5623
6.6595	629.7913
6.66	653.4119
6.6605	560.0281
6.661	506.1951
6.6615	437.1643
6.662	375.9155
6.6625	298.5535
6.663	177.2461
6.6635	92.3767
6.664	-20.1416
6.6645	-149.4141
6.665	-292.6025
6.6655	-363.3728
6.666	-438.8123
6.6665	-428.4668
6.667	-420.3186
6.6675	-320.8923
6.668	-179.3518
6.6685	-122.406
6.669	28.8391
6.6695	192.5354
6.67	228.9734
6.6705	208.9233
6.671	156.6467
6.6715	151.4282
6.672	141.9983
6.6725	127.7161
6.673	45.6848
6.6735	-89.8132
6.674	-232.3608
6.6745	-379.0283
6.675	-511.0474
6.6755	-503.2654
6.676	-476.0742
6.6765	-393.4021
6.677	-268.5242
6.6775	-150.5127
6.678	5.3101
6.6785	185.9436
6.679	349.2737
6.6795	508.3923
6.68	538.8794
6.6805	603.0579
6.681	651.3977
6.6815	662.8418
6.682	678.4973
6.6825	722.6257
6.683	799.8962
6.6835	833.1299
6.684	805.9387
6.6845	742.218
6.685	601.9592
6.6855	436.9812
6.686	303.1311
6.6865	225.8606
6.687	137.2375
6.6875	49.4385
6.688	9.7961
6.6885	-27.1912
6.689	-57.1289
6.6895	-79.01
6.69	-104.0955
6.6905	-120.8496
6.691	-131.012
6.6915	-125.3357
6.692	-118.8354
6.6925	-119.8425
6.693	-133.5754
6.6935	-145.9351
6.694	-173.4924
6.6945	-203.9795
6.695	-253.0518
6.6955	-352.3865
6.696	-435.1501
6.6965	-526.7944
6.697	-654.5105
6.6975	-676.5747
6.698	-653.8696
6.6985	-633.3618
6.699	-675.0183
6.6995	-642.5171
6.7	-555.0842
6.7005	-440.3687
6.701	-340.9424
6.7015	-146.0266
6.702	6.6833
6.7025	88.9893
6.703	98.877
6.7035	78.9185
6.704	30.2124
6.7045	-55.9387
6.705	-152.9846
6.7055	-305.603
6.706	-474.7009
6.7065	-574.6765
6.707	-583.374
6.7075	-604.248
6.708	-480.1941
6.7085	-327.8503
6.709	-243.0725
6.7095	-97.4121
6.71	39.5508
6.7105	150.9705
6.711	254.6082
6.7115	424.8962
6.712	609.1003
6.7125	736.9995
6.713	731.5979
6.7135	624.115
6.714	533.5693
6.7145	456.0242
6.715	384.2468
6.7155	300.9338
6.716	180.4504
6.7165	113.0676
6.717	-0.0916
6.7175	-61.9812
6.718	-112.793
6.7185	-163.0554
6.719	-182.9224
6.7195	-190.7043
6.72	-155.9143
6.7205	-124.6948
6.721	-123.8708
6.7215	-142.8223
6.722	-129.364
6.7225	-119.8425
6.723	-112.5183
6.7235	-67.5659
6.724	-27.2827
6.7245	1.6479
6.725	59.6924
6.7255	121.1243
6.726	181.0913
6.7265	226.1353
6.727	209.7473
6.7275	144.104
6.728	100.7996
6.7285	52.0935
6.729	-64.7278
6.7295	-167.45
6.73	-186.9507
6.7305	-169.6472
6.731	-127.8992
6.7315	-69.4885
6.732	51.4526
6.7325	177.4292
6.733	248.0164
6.7335	292.511
6.734	297.3633
6.7345	290.7715
6.735	277.4048
6.7355	243.988
6.736	156.2805
6.7365	77.7283
6.737	46.3257
6.7375	35.2478
6.738	46.2341
6.7385	38.1775
6.739	35.5225
6.7395	20.7825
6.74	4.0283
6.7405	-10.3455
6.741	-29.2053
6.7415	-33.2336
6.742	-36.0718
6.7425	-30.5786
6.743	-35.9802
6.7435	-36.3464
6.744	-44.4946
6.7445	-54.4739
6.745	-67.2913
6.7455	-69.8547
6.746	-72.4182
6.7465	-68.2068
6.747	-71.1365
6.7475	-68.2068
6.748	-70.7703
6.7485	-71.7773
6.749	-63.6292
6.7495	-66.8335
6.75	-67.8406
6.7505	-70.3125
6.751	-66.2842
6.7515	-61.3403
6.752	-63.5376
6.7525	-59.3262
6.753	-55.9387
6.7535	-49.8962
6.754	-47.6074
6.7545	-39.1846
6.755	-37.5366
6.7555	-43.8538
6.756	-43.8538
6.7565	-44.0369
6.757	-43.396
6.7575	-45.2271
6.758	-43.0298
6.7585	-35.9802
6.759	-40.2832
6.7595	-30.6702
6.76	-27.3743
6.7605	-20.4163
6.761	-19.7754
6.7615	-16.3879
6.762	-12.3596
6.7625	-15.8386
6.763	-18.5852
6.7635	-18.0359
6.764	-22.4304
6.7645	-21.9727
6.765	-19.1345
6.7655	-9.8877
6.766	-3.8452
6.7665	-2.1057
6.767	-4.9438
6.7675	0.4578
6.768	0.2747
6.7685	-2.8381
6.769	1.1902
6.7695	-4.7607
6.77	1.4648
6.7705	2.4719
6.771	3.6621
6.7715	6.958
6.772	8.0566
6.7725	25.7263
6.773	19.9585
6.7735	19.3176
6.774	23.3459
6.7745	19.1345
6.775	15.9302
6.7755	16.3879
6.776	16.3879
6.7765	20.1416
6.777	12.085
6.7775	11.6272
6.778	16.0217
6.7785	18.4021
6.779	18.4021
6.7795	20.874
6.78	16.8457
6.7805	10.9863
6.781	13.092
6.7815	9.7046
6.782	5.4016
6.7825	14.1907
6.783	11.261
6.7835	8.6975
6.784	9.0637
6.7845	4.9438
6.785	14.5569
6.7855	3.8452
6.786	3.9368
6.7865	-1.2817
6.787	3.9368
6.7875	2.3804
6.788	-3.7537
6.7885	6.3171
6.789	2.1057
6.7895	4.9438
6.79	10.8032
6.7905	4.7607
6.791	7.1411
6.7915	12.4512
6.792	6.0425
6.7925	10.8948
6.793	8.3313
6.7935	1.1902
6.794	-5.7678
6.7945	-7.782
6.795	-2.2888
6.7955	1.6479
6.796	-4.4861
6.7965	-4.7607
6.797	-11.4441
6.7975	1.2817
6.798	1.0986
6.7985	2.0142
6.799	-6.6833
6.7995	-4.303
6.8	5.127
6.8005	-5.4932
6.801	-3.8452
6.8015	-11.4441
6.802	-3.2043
6.8025	-7.8735
6.803	-4.9438
6.8035	-18.3105
6.804	-0.824
6.8045	-12.5427
6.805	-9.613
6.8055	-9.9792
6.806	-7.3242
6.8065	-7.4158
6.807	1.6479
6.8075	-3.0212
6.808	0.4578
6.8085	-1.1902
6.809	-9.9792
6.8095	-25.5432
6.81	-19.8669
6.8105	-16.7542
6.811	-13.5498
6.8115	-14.3738
6.812	-13.0005
6.8125	1.6479
6.813	-4.2114
6.8135	-8.606
6.814	-7.9651
6.8145	-3.0212
6.815	-4.4861
6.8155	-4.8523
6.816	2.1057
6.8165	0.9155
6.817	-0.7324
6.8175	-5.3101
6.818	-6.6833
6.8185	-8.1482
6.819	2.8381
6.8195	4.1199
6.82	-3.6621
6.8205	-2.4719
6.821	-3.0212
6.8215	-1.1902
6.822	0.7324
6.8225	-4.0283
6.823	-1.2817
6.8235	-4.8523
6.824	-7.3242
6.8245	1.7395
6.825	2.1057
6.8255	-3.0212
6.826	-12.085
6.8265	-9.5215
6.827	-12.2681
6.8275	-15.9302
6.828	-21.6064
6.8285	-24.4446
6.829	-23.8953
6.8295	-24.8108
6.83	-20.9656
6.8305	-16.1133
6.831	-25.0854
6.8315	-31.2195
6.832	-32.135
6.8325	-36.1633
6.833	-38.3606
6.8335	-30.4871
6.834	-31.1279
6.8345	-26.0925
6.835	-24.2615
6.8355	-21.5149
6.836	-19.5923
6.8365	-26.3672
6.837	-17.5781
6.8375	-19.8669
6.838	-18.4937
6.8385	-21.698
6.839	-15.0146
6.8395	-21.3318
6.84	-26.2756
6.8405	-24.6277
6.841	-17.5781
6.8415	-18.0359
6.842	-21.7896
6.8425	-22.8882
6.843	-21.8811
6.8435	-19.6838
6.844	-15.8386
6.8445	-9.2468
6.845	-13.6414
6.8455	-5.8594
6.846	-8.8806
6.8465	-7.8735
6.847	-15.2893
6.8475	-14.5569
6.848	-13.1836
6.8485	-5.5847
6.849	-5.7678
6.8495	-6.958
6.85	-4.8523
6.8505	-4.1199
6.851	-10.8032
6.8515	-3.7537
6.852	-8.606
6.8525	-0.2747
6.853	0.1831
6.8535	5.7678
6.854	1.9226
6.8545	0.6409
6.855	-4.303
6.8555	5.4016
6.856	4.7607
6.8565	2.1057
6.857	7.8735
6.8575	1.1902
6.858	10.9863
6.8585	5.0354
6.859	1.6479
6.8595	-0.9155
6.86	2.3804
6.8605	-3.479
6.861	4.9438
6.8615	2.655
6.862	4.4861
6.8625	-3.5706
6.863	17.0288
6.8635	6.0425
6.864	6.7749
6.8645	2.655
6.865	0.7324
6.8655	6.6833
6.866	2.5635
6.8665	-5.5847
6.867	-2.3804
6.8675	0.6409
6.868	5.4016
6.8685	-4.7607
6.869	3.2043
6.8695	-6.0425
6.87	-3.479
6.8705	-1.3733
6.871	-1.9226
6.8715	-14.0991
6.872	-13.3667
6.8725	-11.8103
6.873	-5.5847
6.8735	-20.874
6.874	-14.5569
6.8745	-7.6904
6.875	-13.8245
6.8755	-18.3105
6.876	-15.3809
6.8765	-15.6555
6.877	-14.9231
6.8775	-17.6697
6.878	-10.2539
6.8785	-13.0005
6.879	-12.4512
6.8795	-14.9231
6.88	-12.2681
6.8805	-17.9443
6.881	-18.0359
6.8815	-11.261
6.882	-14.2822
6.8825	-6.4087
6.883	-7.0496
6.8835	-4.6692
6.884	-0.0916
6.8845	-5.4932
6.885	-4.2114
6.8855	-7.0496
6.886	-5.9509
6.8865	-9.4299
6.887	-6.958
6.8875	-8.6975
6.888	-7.3242
6.8885	-4.6692
6.889	3.0212
6.8895	0.3662
6.89	7.8735
6.8905	7.3242
6.891	7.8735
6.8915	6.5002
6.892	6.0425
6.8925	4.8523
6.893	3.9368
6.8935	2.4719
6.894	3.5706
6.8945	6.5002
6.895	13.2751
6.8955	16.0217
6.896	7.2327
6.8965	7.0496
6.897	8.6975
6.8975	7.5989
6.898	0.7324
6.8985	7.4158
6.899	9.9792
6.8995	6.3171
6.9	10.8948
6.9005	7.5989
6.901	26.0925
6.9015	32.6843
6.902	45.5017
6.9025	30.7617
6.903	31.0364
6.9035	35.0647
6.904	33.6914
6.9045	38.269
6.905	34.1492
6.9055	32.959
6.906	29.48
6.9065	30.8533
6.907	24.2615
6.9075	17.1204
6.908	15.7471
6.9085	27.9236
6.909	20.7825
6.9095	11.6272
6.91	24.2615
6.9105	9.9792
6.911	20.874
6.9115	11.1694
6.912	11.9934
6.9125	13.6414
6.913	17.1204
6.9135	13.2751
6.914	6.134
6.9145	6.134
6.915	7.782
6.9155	2.7466
6.916	0.6409
6.9165	0.1831
6.917	1.5564
6.9175	0.824
6.918	0.2747
6.9185	-13.0005
6.919	-1.1902
6.9195	-9.7961
6.92	-11.5356
6.9205	-14.5569
6.921	-9.613
6.9215	-14.0076
6.922	-10.9863
6.9225	-11.7188
6.923	-20.3247
6.9235	-18.8599
6.924	-21.8811
6.9245	-19.043
6.925	-23.8037
6.9255	-12.3596
6.926	-19.5007
6.9265	-13.5498
6.927	-22.7051
6.9275	-24.4446
6.928	-24.9939
6.9285	-22.6135
6.929	-28.9307
6.9295	-24.8108
6.93	-27.3743
6.9305	-34.1492
6.931	-37.4451
6.9315	-27.9236
6.932	-32.8674
6.9325	-21.6064
6.933	-31.8604
6.9335	-32.4097
6.934	-31.2195
6.9345	-32.8674
6.935	-38.1775
6.9355	-35.4309
6.936	-29.7546
6.9365	-36.7126
6.937	-46.6003
6.9375	-46.7834
6.938	-44.8608
6.9385	-42.9382
6.939	-35.4309
6.9395	-38.3606
6.94	-38.9099
6.9405	-42.6636
6.941	-36.438
6.9415	-34.9731
6.942	-35.7056
6.9425	-44.22
6.943	-39.0015
6.9435	-41.1072
6.944	-46.2341
6.9445	-44.4946
6.945	-38.3606
6.9455	-40.2832
6.946	-40.2832
6.9465	-46.6919
6.947	-44.7693
6.9475	-37.8113
6.948	-37.7197
6.9485	-47.699
6.949	-41.3818
6.9495	-42.2058
6.95	-41.748
6.9505	-41.1072
6.951	-37.3535
6.9515	-46.3257
6.952	-40.0085
6.9525	-37.0789
6.953	-32.3181
6.9535	-35.2478
6.954	-25.7263
6.9545	-29.7546
6.955	-32.6843
6.9555	-30.8533
6.956	-36.8042
6.9565	-33.1421
6.957	-29.5715
6.9575	-32.4097
6.958	-36.6211
6.9585	-45.5017
6.959	-35.614
6.9595	-39.2761
6.96	-36.7126
6.9605	-35.3394
6.961	-41.1987
6.9615	-36.2549
6.962	-34.5154
6.9625	-32.4097
6.963	-35.4309
6.9635	-42.7551
6.964	-38.8184
6.9645	-41.748
6.965	-39.917
6.9655	-37.6282
6.966	-40.2832
6.9665	-42.8467
6.967	-39.093
6.9675	-36.7126
6.968	-39.2761
6.9685	-39.5508
6.969	-40.5579
6.9695	-34.2407
6.97	-42.9382
6.9705	-38.0859
6.971	-41.1987
6.9715	-44.0369
6.972	-46.1426
6.9725	-41.6565
6.973	-41.8396
6.9735	-37.8113
6.974	-38.4521
6.9745	-35.614
6.975	-36.6211
6.9755	-44.7693
6.976	-48.5229
6.9765	-43.5791
6.977	-45.6848
6.9775	-49.8962
6.978	-45.8679
6.9785	-42.572
6.979	-50.4456
6.9795	-40.8325
6.98	-42.9382
6.9805	-57.2205
6.981	-46.051
6.9815	-49.1638
6.982	-48.3398
6.9825	-52.002
6.983	-41.4734
6.9835	-42.9382
6.984	-53.9246
6.9845	-46.5088
6.985	-47.7905
6.9855	-46.1426
6.986	-56.2134
6.9865	-49.7131
6.987	-50.7202
6.9875	-54.1077
6.988	-53.009
6.9885	-48.8892
6.989	-52.8259
6.9895	-49.6216
6.99	-49.53
6.9905	-53.1006
6.991	-54.1992
6.9915	-51.3611
6.992	-48.1567
6.9925	-49.3469
6.993	-37.0789
6.9935	-40.8325
6.994	-40.1917
6.9945	-39.1846
6.995	-42.2058
6.9955	-40.4663
6.996	-40.0085
6.9965	-37.0789
6.997	-41.3818
6.9975	-33.5083
6.998	-36.6211
6.9985	-34.3323
6.999	-35.7971
6.9995	-26.3672
7	-33.9661
7.0005	-33.0505
7.001	-30.1208
7.0015	-37.6282
7.002	-33.4167
7.0025	-36.3464
7.003	-39.2761
7.0035	-32.5012
7.004	-33.5999
7.0045	-35.614
7.005	-36.3464
7.0055	-38.4521
7.006	-40.741
7.0065	-29.3884
7.007	-38.9099
7.0075	-33.6914
7.008	-31.6772
7.0085	-28.2898
7.009	-26.7334
7.0095	-33.5083
7.01	-29.48
7.0105	-28.1982
7.011	-22.7051
7.0115	-23.3459
7.012	-30.1208
7.0125	-22.0642
7.013	-26.6418
7.0135	-24.9939
7.014	-26.1841
7.0145	-24.0784
7.015	-27.1912
7.0155	-32.2266
7.016	-34.3323
7.0165	-31.9519
7.017	-40.3748
7.0175	-37.262
7.018	-40.3748
7.0185	-36.1633
7.019	-37.0789
7.0195	-33.783
7.02	-36.2549
7.0205	-29.6631
7.021	-36.7126
7.0215	-35.4309
7.022	-40.0085
7.0225	-37.9028
7.023	-35.2478
7.0235	-30.1208
7.024	-36.5295
7.0245	-33.4167
7.025	-30.4871
7.0255	-36.3464
7.026	-22.9797
7.0265	-31.9519
7.027	-27.7405
7.0275	-24.4446
7.028	-22.7051
7.0285	-29.3884
7.029	-22.8882
7.0295	-26.1841
7.03	-26.7334
7.0305	-22.6135
7.031	-22.2473
7.0315	-18.9514
7.032	-20.9656
7.0325	-15.2893
7.033	-16.3879
7.0335	-22.4304
7.034	-22.0642
7.0345	-27.6489
7.035	-19.5923
7.0355	-16.1133
7.036	-18.7683
7.0365	-15.7471
7.037	-14.1907
7.0375	-21.7896
7.038	-13.5498
7.0385	-21.0571
7.039	-25.7263
7.0395	-25.3601
7.04	-25.8179
7.0405	-31.311
7.041	-32.0435
7.0415	-39.6423
7.042	-35.9802
7.0425	-37.0789
7.043	-29.3884
7.0435	-33.9661
7.044	-29.6631
7.0445	-29.3884
7.045	-21.9727
7.0455	-21.698
7.046	-24.9939
7.0465	-29.3884
7.047	-24.6277
7.0475	-26.2756
7.048	-26.9165
7.0485	-30.8533
7.049	-26.9165
7.0495	-18.4937
7.05	-26.7334
7.0505	-28.8391
7.051	-19.6838
7.0515	-26.2756
7.052	-16.571
7.0525	-20.3247
7.053	-20.4163
7.0535	-20.2332
7.054	-24.6277
7.0545	-20.9656
7.055	-22.9797
7.0555	-20.4163
7.056	-21.2402
7.0565	-16.6626
7.057	-19.7754
7.0575	-14.5569
7.058	-14.6484
7.0585	-17.8528
7.059	-21.9727
7.0595	-14.74
7.06	-17.8528
7.0605	-20.5078
7.061	-16.1133
7.0615	-15.0146
7.062	-17.6697
7.0625	-13.4583
7.063	-12.8174
7.0635	-19.8669
7.064	-16.2048
7.0645	-15.8386
7.065	-9.7961
7.0655	-18.0359
7.066	-18.219
7.0665	-22.9797
7.067	-15.2893
7.0675	-15.1978
7.068	-16.2964
7.0685	-13.5498
7.069	-9.4299
7.0695	-12.7258
7.07	-11.261
7.0705	-11.0779
7.071	-7.5989
7.0715	-11.1694
7.072	-11.1694
7.0725	-16.3879
7.073	-10.7117
7.0735	-9.4299
7.074	-11.9934
7.0745	-10.7117
7.075	-9.7961
7.0755	-4.4861
7.076	-3.7537
7.0765	-4.8523
7.077	-4.4861
7.0775	3.2043
7.078	-0.0916
7.0785	-1.7395
7.079	2.5635
7.0795	5.2185
7.08	-0.5493
7.0805	-3.6621
7.081	-2.1973
7.0815	4.4861
7.082	-6.7749
7.0825	1.1902
7.083	0.4578
7.0835	2.1973
7.084	6.8665
7.0845	6.6833
7.085	1.3733
7.0855	5.127
7.086	1.6479
7.0865	12.3596
7.087	14.0076
7.0875	8.3313
7.088	12.7258
7.0885	12.3596
7.089	5.0354
7.0895	9.4299
7.09	8.606
7.0905	10.1624
7.091	11.0779
7.0915	17.1204
7.092	5.7678
7.0925	15.6555
7.093	12.1765
7.0935	17.395
7.094	8.606
7.0945	5.7678
7.095	8.3313
7.0955	8.7891
7.096	12.7258
7.0965	17.395
7.097	20.7825
7.0975	16.3879
7.098	21.2402
7.0985	17.5781
7.099	18.4021
7.0995	15.4724
7.1	16.0217
7.1005	12.3596
7.101	17.5781
7.1015	14.5569
7.102	16.3879
7.1025	16.6626
7.103	13.092
7.1035	23.5291
7.104	20.7825
7.1045	17.7612
7.105	26.0925
7.1055	18.7683
7.106	21.4233
7.1065	20.4163
7.107	20.874
7.1075	15.4724
7.108	22.522
7.1085	26.3672
7.109	21.0571
7.1095	22.1558
7.11	26.6418
7.1105	19.3176
7.111	26.2756
7.1115	21.5149
7.112	30.304
7.1125	22.4304
7.113	16.6626
7.1135	23.7122
7.114	21.3318
7.1145	24.8108
7.115	20.9656
7.1155	26.2756
7.116	22.2473
7.1165	29.9377
7.117	18.1274
7.1175	23.8953
7.118	30.1208
7.1185	30.304
7.119	32.2266
7.1195	28.7476
7.12	24.9939
7.1205	20.4163
7.121	20.6909
7.1215	23.7122
7.122	21.4233
7.1225	20.4163
7.123	20.874
7.1235	21.698
7.124	13.092
7.1245	18.7683
7.125	21.6064
7.1255	26.9165
7.126	24.0784
7.1265	28.1067
7.127	21.7896
7.1275	28.1067
7.128	20.5994
7.1285	23.5291
7.129	14.5569
7.1295	20.5994
7.13	25.9094
7.1305	20.5994
7.131	20.6909
7.1315	22.9797
7.132	15.4724
7.1325	14.9231
7.133	20.3247
7.1335	30.8533
7.134	29.7546
7.1345	26.5503
7.135	27.9236
7.1355	22.6135
7.136	26.001
7.1365	26.7334
7.137	26.6418
7.1375	20.7825
7.138	28.0151
7.1385	20.2332
7.139	20.1416
7.1395	22.0642
7.14	18.9514
7.1405	23.9868
7.141	21.5149
7.1415	21.4233
7.142	26.2756
7.1425	22.2473
7.143	22.6135
7.1435	25.177
7.144	22.522
7.1445	26.6418
7.145	18.4021
7.1455	19.8669
7.146	21.698
7.1465	17.1204
7.147	17.0288
7.1475	31.0364
7.148	18.8599
7.1485	27.7405
7.149	29.5715
7.1495	30.6702
7.15	40.5579
7.1505	37.8113
7.151	32.135
7.1515	28.1067
7.152	30.2124
7.1525	23.3459
7.153	24.0784
7.1535	25.6348
7.154	23.2544
7.1545	27.1912
7.155	30.2124
7.1555	29.0222
7.156	31.7688
7.1565	32.959
7.157	32.3181
7.1575	34.3323
7.158	40.1917
7.1585	34.9731
7.159	41.5649
7.1595	34.6985
7.16	36.7126
7.1605	30.7617
7.161	34.79
7.1615	32.3181
7.162	33.3252
7.1625	26.4587
7.163	31.7688
7.1635	32.135
7.164	24.9023
7.1645	25.177
7.165	27.4658
7.1655	25.9094
7.166	37.1704
7.1665	27.0996
7.167	28.4729
7.1675	23.5291
7.168	23.9868
7.1685	31.0364
7.169	30.9448
7.1695	26.6418
7.17	32.4097
7.1705	25.3601
7.171	30.2124
7.1715	26.0925
7.172	24.2615
7.1725	24.6277
7.173	24.9939
7.1735	25.3601
7.174	20.9656
7.1745	26.0925
7.175	23.5291
7.1755	29.1138
7.176	27.0081
7.1765	27.3743
7.177	26.2756
7.1775	31.311
7.178	28.7476
7.1785	30.8533
7.179	31.7688
7.1795	26.5503
7.18	23.5291
7.1805	19.3176
7.181	20.6909
7.1815	23.9868
7.182	20.1416
7.1825	15.2893
7.183	20.7825
7.1835	15.2893
7.184	9.4299
7.1845	12.6343
7.185	14.5569
7.1855	20.4163
7.186	23.8953
7.1865	21.8811
7.187	20.4163
7.1875	17.395
7.188	27.0996
7.1885	26.7334
7.189	26.5503
7.1895	36.438
7.19	28.2898
7.1905	24.9023
7.191	18.219
7.1915	24.1699
7.192	24.8108
7.1925	25.5432
7.193	22.9797
7.1935	18.9514
7.194	19.5007
7.1945	24.6277
7.195	29.7546
7.1955	26.6418
7.196	19.4092
7.1965	18.4937
7.197	23.4375
7.1975	6.134
7.198	5.3101
7.1985	-8.606
7.199	8.2397
7.1995	9.5215
7.2	13.7329
7.2005	15.6555
7.201	28.1982
7.2015	28.4729
7.202	33.783
7.2025	25.6348
7.203	20.4163
7.2035	11.4441
7.204	18.9514
7.2045	14.9231
7.205	13.1836
7.2055	17.6697
7.206	16.8457
7.2065	22.4304
7.207	28.656
7.2075	31.6772
7.208	27.0081
7.2085	19.6838
7.209	20.2332
7.2095	20.7825
7.21	14.3738
7.2105	5.2185
7.211	1.1902
7.2115	-18.4937
7.212	-25.3601
7.2125	-24.2615
7.213	-24.9939
7.2135	-30.1208
7.214	-16.3879
7.2145	-10.8032
7.215	-10.3455
7.2155	-4.6692
7.216	7.5989
7.2165	13.4583
7.217	30.0293
7.2175	34.0576
7.218	43.0298
7.2185	42.2974
7.219	44.1284
7.2195	42.9382
7.22	40.0085
7.2205	35.5225
7.221	26.6418
7.2215	21.0571
7.222	19.6838
7.2225	16.9373
7.223	-4.4861
7.2235	0.0916
7.224	-9.9792
7.2245	-16.2964
7.225	-10.5286
7.2255	-12.9089
7.226	0.6409
7.2265	4.4861
7.227	15.8386
7.2275	28.2898
7.228	36.3464
7.2285	30.3955
7.229	23.3459
7.2295	23.1628
7.23	14.0076
7.2305	15.1062
7.231	4.5776
7.2315	-5.4932
7.232	0.5493
7.2325	-8.3313
7.233	-10.7117
7.2335	-13.6414
7.234	-16.571
7.2345	-11.1694
7.235	-5.2185
7.2355	-1.6479
7.236	2.0142
7.2365	19.2261
7.237	36.7126
7.2375	56.0303
7.238	72.2351
7.2385	81.8481
7.239	93.0176
7.2395	93.8416
7.24	87.616
7.2405	40.4663
7.241	19.1345
7.2415	14.1907
7.242	16.6626
7.2425	5.4016
7.243	-4.6692
7.2435	-1.9226
7.244	-2.2888
7.2445	11.261
7.245	41.6565
7.2455	51.0864
7.246	63.446
7.2465	71.0449
7.247	68.8477
7.2475	66.925
7.248	71.1365
7.2485	64.1785
7.249	65.5518
7.2495	63.6292
7.25	68.9392
7.2505	71.228
7.251	61.4319
7.2515	53.1006
7.252	56.1218
7.2525	59.3262
7.253	47.7905
7.2535	48.6145
7.254	47.7905
7.2545	44.9524
7.255	37.6282
7.2555	24.4446
7.256	23.9868
7.2565	27.0081
7.257	32.5012
7.2575	24.6277
7.258	15.0146
7.2585	10.7117
7.259	7.9651
7.2595	2.1057
7.26	-20.4163
7.2605	-36.5295
7.261	-53.9246
7.2615	-34.5154
7.262	-19.7754
7.2625	-14.6484
7.263	1.1902
7.2635	0.6409
7.264	16.0217
7.2645	26.0925
7.265	49.1638
7.2655	51.5442
7.266	68.9392
7.2665	68.7561
7.267	57.5867
7.2675	58.4106
7.268	54.4739
7.2685	57.4951
7.269	60.3333
7.2695	57.4036
7.27	55.2063
7.2705	50.4456
7.271	49.0723
7.2715	40.3748
7.272	34.6069
7.2725	22.8882
7.273	2.4719
7.2735	1.2817
7.274	5.127
7.2745	6.6833
7.275	22.9797
7.2755	23.2544
7.276	45.9595
7.2765	65.3687
7.277	78.6438
7.2775	80.3833
7.278	66.7419
7.2785	49.3469
7.279	40.4663
7.2795	36.7126
7.28	23.3459
7.2805	7.782
7.281	-10.2539
7.2815	-30.8533
7.282	-46.9666
7.2825	-49.6216
7.283	-57.7698
7.2835	-68.2068
7.284	-72.2351
7.2845	-63.8123
7.285	-59.8755
7.2855	-63.9954
7.286	-61.2488
7.2865	-47.6074
7.287	-33.0505
7.2875	-13.2751
7.288	9.7961
7.2885	33.8745
7.289	60.9741
7.2895	77.0874
7.29	98.877
7.2905	87.1582
7.291	63.3545
7.2915	33.9661
7.292	12.6343
7.2925	3.2043
7.293	11.4441
7.2935	17.1204
7.294	27.1912
7.2945	51.0864
7.295	78.7354
7.2955	96.4966
7.296	110.5042
7.2965	121.0327
7.297	130.5542
7.2975	136.0474
7.298	128.2654
7.2985	134.9487
7.299	109.4055
7.2995	104.5532
7.3	106.842
7.3005	103.4546
7.301	89.6301
7.3015	74.9817
7.302	32.7759
7.3025	16.6626
7.303	-0.0916
7.3035	-6.7749
7.304	-16.9373
7.3045	-13.7329
7.305	-19.5007
7.3055	-17.3035
7.306	-11.1694
7.3065	-10.9863
7.307	8.2397
7.3075	34.1492
7.308	50.0793
7.3085	66.925
7.309	88.5315
7.3095	79.7424
7.31	88.1653
7.3105	62.5305
7.311	55.9387
7.3115	62.2559
7.312	64.9109
7.3125	64.7278
7.313	33.0505
7.3135	19.6838
7.314	26.0925
7.3145	34.5154
7.315	20.05
7.3155	17.1204
7.316	17.6697
7.3165	10.5286
7.317	21.3318
7.3175	13.4583
7.318	0.2747
7.3185	-1.9226
7.319	-11.6272
7.3195	-28.1067
7.32	-44.0369
7.3205	-27.1912
7.321	-5.5847
7.3215	12.3596
7.322	8.606
7.3225	-7.2327
7.323	-3.2959
7.3235	0
7.324	2.655
7.3245	4.303
7.325	-5.5847
7.3255	-25.4517
7.326	-43.6707
7.3265	-58.5938
7.327	-75.8972
7.3275	-77.5452
7.328	-87.3413
7.3285	-76.355
7.329	-63.446
7.3295	-55.7556
7.33	-44.6777
7.3305	-30.6702
7.331	-24.7192
7.3315	-19.4092
7.332	-21.7896
7.3325	-21.2402
7.333	-26.1841
7.3335	-24.9939
7.334	-49.8962
7.3345	-73.6084
7.335	-101.2573
7.3355	-133.4839
7.336	-135.1318
7.3365	-144.6533
7.337	-140.8997
7.3375	-135.0403
7.338	-145.3857
7.3385	-158.5693
7.339	-158.02
7.3395	-172.6685
7.34	-152.71
7.3405	-142.6392
7.341	-126.2512
7.3415	-106.0181
7.342	-84.7778
7.3425	-71.3196
7.343	-51.0864
7.3435	-44.9524
7.344	-39.0015
7.3445	-48.8892
7.345	-80.1086
7.3455	-130.6458
7.346	-160.4919
7.3465	-137.6038
7.347	-120.4834
7.3475	-87.7075
7.348	-64.1785
7.3485	-47.5159
7.349	-41.6565
7.3495	-10.0708
7.35	32.8674
7.3505	96.9543
7.351	154.3579
7.3515	195.7397
7.352	213.0432
7.3525	178.9856
7.353	158.3862
7.3535	128.6316
7.354	82.5806
7.3545	66.5588
7.355	68.7561
7.3555	9.3384
7.356	-35.2478
7.3565	-48.6145
7.357	-57.7698
7.3575	-74.1577
7.358	-101.532
7.3585	-135.2234
7.359	-154.2664
7.3595	-156.4636
7.36	-128.0823
7.3605	-112.8845
7.361	-93.3838
7.3615	-67.4744
7.362	-41.1072
7.3625	-14.0076
7.363	9.2468
7.3635	26.825
7.364	44.5862
7.3645	45.9595
7.365	52.4597
7.3655	78.3691
7.366	83.1299
7.3665	77.3621
7.367	70.5872
7.3675	67.3828
7.368	77.6367
7.3685	59.4177
7.369	39.4592
7.3695	16.6626
7.37	-23.1628
7.3705	-79.7424
7.371	-123.4131
7.3715	-172.1191
7.372	-203.7048
7.3725	-230.4382
7.373	-246.7346
7.3735	-269.989
7.374	-246.0022
7.3745	-173.9502
7.375	-114.1663
7.3755	-30.4871
7.376	13.7329
7.3765	63.6292
7.377	88.2568
7.3775	70.5872
7.378	21.4233
7.3785	-5.4016
7.379	-26.1841
7.3795	-50.9949
7.38	-115.0818
7.3805	-217.6208
7.381	-238.3118
7.3815	-211.3953
7.382	-180.2673
7.3825	-188.6902
7.383	-175.2319
7.3835	-132.5684
7.384	-110.8704
7.3845	-83.5876
7.385	-46.3257
7.3855	25.5432
7.386	77.9114
7.3865	66.0095
7.387	66.7419
7.3875	51.9104
7.388	54.3823
7.3885	-58.6853
7.389	-182.2815
7.3895	-284.5459
7.39	-317.4133
7.3905	-278.6865
7.391	-256.4392
7.3915	-257.9041
7.392	-178.0701
7.3925	-84.5032
7.393	8.3313
7.3935	103.7292
7.394	159.2102
7.3945	205.3528
7.395	252.4109
7.3955	333.5266
7.396	378.0212
7.3965	321.991
7.397	246.7346
7.3975	171.4783
7.398	144.3787
7.3985	69.7632
7.399	-62.2559
7.3995	-242.8894
7.4	-433.2275
7.4005	-554.9927
7.401	-625.2136
7.4015	-611.5723
7.402	-667.2363
7.4025	-675.2014
7.403	-573.3948
7.4035	-417.2058
7.404	-176.8799
7.4045	-87.4329
7.405	18.219
7.4055	21.3318
7.406	18.1274
7.4065	-9.7961
7.407	-97.7783
7.4075	-232.8186
7.408	-319.9768
7.4085	-346.4355
7.409	-433.2275
7.4095	-478.2715
7.41	-467.1021
7.4105	-328.8574
7.411	-155.7312
7.4115	146.2097
7.412	423.6145
7.4125	584.7473
7.413	757.4158
7.4135	792.2058
7.414	781.4941
7.4145	717.6819
7.415	616.2415
7.4155	441.8335
7.416	363.4644
7.4165	309.6313
7.417	336.8225
7.4175	395.1416
7.418	578.064
7.4185	740.2954
7.419	927.2461
7.4195	1003.6926
7.42	975.4944
7.4205	838.3484
7.421	676.3
7.4215	456.9397
7.422	339.9353
7.4225	236.4807
7.423	102.0813
7.4235	37.9944
7.424	10.8032
7.4245	18.4021
7.425	67.6575
7.4255	137.5122
7.426	161.2244
7.4265	190.155
7.427	187.4084
7.4275	167.9993
7.428	115.3564
7.4285	24.0784
7.429	-64.3616
7.4295	-115.8142
7.43	-126.0681
7.4305	-120.575
7.431	-131.5613
7.4315	-137.0544
7.432	-161.0413
7.4325	-181.366
7.433	-203.7048
7.4335	-224.4873
7.434	-264.9536
7.4345	-331.1462
7.435	-380.7678
7.4355	-407.0435
7.436	-410.4309
7.4365	-428.6499
7.437	-460.2356
7.4375	-530.2734
7.438	-583.7402
7.4385	-640.0452
7.439	-701.0193
7.4395	-787.1704
7.44	-897.1252
7.4405	-1026.947
7.441	-1101.1963
7.4415	-1144.7754
7.442	-1127.3804
7.4425	-1123.2605
7.443	-1004.0588
7.4435	-827.9114
7.444	-599.2126
7.4445	-401.2756
7.445	-179.3518
7.4455	64.27
7.446	330.6885
7.4465	577.0569
7.447	649.6582
7.4475	623.1995
7.448	544.0063
7.4485	495.7581
7.449	473.7854
7.4495	480.3772
7.45	522.6746
7.4505	550.0488
7.451	545.7458
7.4515	522.8577
7.452	551.0559
7.4525	575.9583
7.453	587.677
7.4535	594.635
7.454	558.6548
7.4545	473.053
7.455	363.739
7.4555	339.7522
7.456	344.0552
7.4565	331.9702
7.457	283.5388
7.4575	231.9946
7.458	214.7827
7.4585	205.9021
7.459	152.8931
7.4595	103.8208
7.46	41.4734
7.4605	-28.2898
7.461	-54.1077
7.4615	-81.3904
7.462	-125.061
7.4625	-163.4216
7.463	-195.4651
7.4635	-230.896
7.464	-250.946
7.4645	-248.4741
7.465	-213.7756
7.4655	-201.3245
7.466	-174.7742
7.4665	-154.9988
7.467	-123.9624
7.4675	-95.5811
7.468	-67.749
7.4685	-55.481
7.469	-49.53
7.4695	-33.9661
7.47	-40.0085
7.4705	-61.615
7.471	-92.3767
7.4715	-153.1677
7.472	-178.8025
7.4725	-183.3801
7.473	-181.7322
7.4735	-164.1541
7.474	-129.9133
7.4745	-91.6443
7.475	-37.4451
7.4755	14.8315
7.476	39.4592
7.4765	61.0657
7.477	62.1643
7.4775	52.2766
7.478	42.1143
7.4785	43.4875
7.479	76.355
7.4795	89.8132
7.48	31.0364
7.4805	14.74
7.481	16.4795
7.4815	2.3804
7.482	-10.0708
7.4825	-3.6621
7.483	2.4719
7.4835	-1.5564
7.484	2.3804
7.4845	-12.085
7.485	-15.2893
7.4855	-28.2898
7.486	-33.8745
7.4865	-38.7268
7.487	-36.5295
7.4875	-35.7971
7.488	-37.0789
7.4885	-36.438
7.489	-42.8467
7.4895	-29.2053
7.49	-40.741
7.4905	-33.0505
7.491	-37.8113
7.4915	-41.1987
7.492	-44.6777
7.4925	-39.2761
7.493	-43.6707
7.4935	-43.2129
7.494	-45.8679
7.4945	-38.5437
7.495	-39.093
7.4955	-45.3186
7.496	-43.2129
7.4965	-41.1072
7.497	-45.4102
7.4975	-37.0789
7.498	-34.5154
7.4985	-31.2195
7.499	-27.5574
7.4995	-34.0576
7.5	-29.5715
7.5005	-24.2615
7.501	-22.7051
7.5015	-24.8108
7.502	-22.6135
7.5025	-22.9797
7.503	-22.6135
7.5035	-20.3247
7.504	-20.5994
7.5045	-15.7471
7.505	-19.1345
7.5055	-17.7612
7.506	-16.3879
7.5065	-9.2468
7.507	-6.6833
7.5075	-5.9509
7.508	-2.8381
7.5085	-6.8665
7.509	-14.0076
7.5095	-11.261
7.51	-13.092
7.5105	0.824
7.511	-9.7961
7.5115	-1.7395
7.512	0.824
7.5125	0.0916
7.513	7.4158
7.5135	1.0986
7.514	5.7678
7.5145	3.1128
7.515	2.8381
7.5155	-2.7466
7.516	-2.2888
7.5165	1.0986
7.517	-5.6763
7.5175	-8.5144
7.518	-2.7466
7.5185	-5.3101
7.519	-1.9226
7.5195	10.2539
7.52	10.1624
7.5205	12.6343
7.521	8.8806
7.5215	13.6414
7.522	9.0637
7.5225	9.613
7.523	16.3879
7.5235	15.9302
7.524	13.6414
7.5245	13.4583
7.525	7.5989
7.5255	17.8528
7.526	16.571
7.5265	8.2397
7.527	10.5286
7.5275	15.6555
7.528	7.5989
7.5285	7.9651
7.529	11.4441
7.5295	2.9297
7.53	6.6833
7.5305	4.7607
7.531	13.4583
7.5315	3.3875
7.532	6.6833
7.5325	8.3313
7.533	9.9792
7.5335	13.1836
7.534	6.2256
7.5345	1.7395
7.535	-8.1482
7.5355	-3.2959
7.536	-2.1973
7.5365	-4.303
7.537	-1.6479
7.5375	2.1057
7.538	1.9226
7.5385	13.6414
7.539	14.0991
7.5395	11.1694
7.54	15.2893
7.5405	7.5989
7.541	3.0212
7.5415	1.9226
7.542	0.7324
7.5425	-2.8381
7.543	-6.6833
7.5435	-7.0496
7.544	-5.2185
7.5445	-5.4016
7.545	2.4719
7.5455	6.8665
7.546	-0.4578
7.5465	9.2468
7.547	5.3101
7.5475	1.7395
7.548	2.1057
7.5485	-7.0496
7.549	-6.958
7.5495	-1.3733
7.55	-7.3242
7.5505	-4.4861
7.551	-9.7961
7.5515	-5.9509
7.552	-5.9509
7.5525	-1.9226
7.553	-6.4087
7.5535	-4.2114
7.554	-7.4158
7.5545	-9.2468
7.555	-9.7961
7.5555	-7.782
7.556	1.9226
7.5565	-2.7466
7.557	-6.2256
7.5575	-4.9438
7.558	3.7537
7.5585	4.4861
7.559	4.3945
7.5595	10.8948
7.56	1.0071
7.5605	-1.5564
7.561	-6.4087
7.5615	-3.7537
7.562	-10.7117
7.5625	-7.5989
7.563	-15.3809
7.5635	-16.6626
7.564	-16.9373
7.5645	-12.5427
7.565	-6.6833
7.5655	-14.0076
7.566	-11.1694
7.5665	-19.3176
7.567	-13.4583
7.5675	-14.4653
7.568	-11.9934
7.5685	-25.7263
7.569	-20.5994
7.5695	-24.6277
7.57	-17.9443
7.5705	-26.4587
7.571	-16.3879
7.5715	-14.3738
7.572	-13.916
7.5725	-15.8386
7.573	-12.8174
7.5735	-26.4587
7.574	-28.7476
7.5745	-28.1067
7.575	-28.1067
7.5755	-25.8179
7.576	-28.2898
7.5765	-27.9236
7.577	-31.5857
7.5775	-29.1138
7.578	-21.5149
7.5785	-20.5994
7.579	-15.1978
7.5795	-18.9514
7.58	-16.1133
7.5805	-20.5994
7.581	-14.9231
7.5815	-20.9656
7.582	-20.2332
7.5825	-13.2751
7.583	-13.6414
7.5835	-21.5149
7.584	-11.8103
7.5845	-17.395
7.585	-11.8103
7.5855	-12.085
7.586	-6.2256
7.5865	-2.2888
7.587	-2.655
7.5875	-14.1907
7.588	-9.4299
7.5885	-11.0779
7.589	-8.8806
7.5895	0.5493
7.59	-6.6833
7.5905	-7.9651
7.591	-0.4578
7.5915	-2.3804
7.592	3.7537
7.5925	-4.1199
7.593	-2.7466
7.5935	-0.6409
7.594	1.3733
7.5945	-3.3875
7.595	-1.0986
7.5955	-3.1128
7.596	-0.6409
7.5965	2.8381
7.597	4.1199
7.5975	7.6904
7.598	14.5569
7.5985	1.6479
7.599	1.0986
7.5995	9.4299
7.6	3.2043
7.6005	5.6763
7.601	4.0283
7.6015	8.6975
7.602	11.0779
7.6025	5.6763
7.603	1.3733
7.6035	3.8452
7.604	4.8523
7.6045	4.5776
7.605	2.8381
7.6055	9.0637
7.606	9.9792
7.6065	5.0354
7.607	14.0991
7.6075	10.7117
7.608	7.9651
7.6085	5.6763
7.609	4.4861
7.6095	1.6479
7.61	4.303
7.6105	12.8174
7.611	9.9792
7.6115	3.9368
7.612	10.0708
7.6125	13.4583
7.613	11.5356
7.6135	3.1128
7.614	5.9509
7.6145	5.3101
7.615	3.8452
7.6155	3.1128
7.616	0.4578
7.6165	1.7395
7.617	2.1057
7.6175	5.4016
7.618	7.9651
7.6185	1.7395
7.619	11.5356
7.6195	0.2747
7.62	1.7395
7.6205	7.5073
7.621	4.0283
7.6215	-4.1199
7.622	-2.8381
7.6225	6.0425
7.623	5.0354
7.6235	8.3313
7.624	6.5002
7.6245	7.3242
7.625	7.2327
7.6255	4.7607
7.626	6.8665
7.6265	2.4719
7.627	1.6479
7.6275	0.6409
7.628	0.3662
7.6285	6.8665
7.629	-0.5493
7.6295	-1.2817
7.63	3.0212
7.6305	0.0916
7.631	-5.9509
7.6315	-0.824
7.632	-5.0354
7.6325	-3.1128
7.633	2.4719
7.6335	-3.479
7.634	-3.0212
7.6345	-4.6692
7.635	3.7537
7.6355	-2.1057
7.636	-3.5706
7.6365	2.4719
7.637	4.4861
7.6375	-0.6409
7.638	-0.6409
7.6385	-0.824
7.639	3.1128
7.6395	-8.606
7.64	1.0071
7.6405	-4.7607
7.641	-16.571
7.6415	-18.5852
7.642	-19.043
7.6425	-13.5498
7.643	-14.9231
7.6435	-15.2893
7.644	-12.4512
7.6445	-15.9302
7.645	-15.4724
7.6455	-14.0991
7.646	-15.564
7.6465	-17.3035
7.647	-19.9585
7.6475	-18.5852
7.648	-21.3318
7.6485	-20.1416
7.649	-23.8953
7.6495	-14.4653
7.65	-19.7754
7.6505	-18.8599
7.651	-24.7192
7.6515	-19.7754
7.652	-27.7405
7.6525	-25.6348
7.653	-21.3318
7.6535	-28.8391
7.654	-19.1345
7.6545	-20.9656
7.655	-23.4375
7.6555	-19.5007
7.656	-13.092
7.6565	-11.9019
7.657	-16.6626
7.6575	-16.0217
7.658	-17.3035
7.6585	-11.0779
7.659	-1.0071
7.6595	-16.4795
7.66	-1.1902
7.6605	3.6621
7.661	-1.3733
7.6615	6.7749
7.662	8.0566
7.6625	8.7891
7.663	1.0071
7.6635	4.5776
7.664	0.6409
7.6645	2.1057
7.665	1.9226
7.6655	-8.8806
7.666	-7.8735
7.6665	-9.4299
7.667	-7.3242
7.6675	-8.0566
7.668	-8.8806
7.6685	-11.9934
7.669	-10.5286
7.6695	-11.9019
7.67	-21.5149
7.6705	-13.6414
7.671	-12.2681
7.6715	-16.2048
7.672	-22.8882
7.6725	-19.5007
7.673	-24.6277
7.6735	-27.0081
7.674	-28.1067
7.6745	-28.2898
7.675	-33.6914
7.6755	-19.4092
7.676	-29.7546
7.6765	-27.9236
7.677	-32.5012
7.6775	-28.8391
7.678	-27.0081
7.6785	-31.4026
7.679	-27.3743
7.6795	-29.0222
7.68	-34.1492
7.6805	-31.4941
7.681	-34.79
7.6815	-36.7126
7.682	-29.1138
7.6825	-34.1492
7.683	-29.0222
7.6835	-28.7476
7.684	-32.5012
7.6845	-29.3884
7.685	-34.2407
7.6855	-32.7759
7.686	-39.1846
7.6865	-39.3677
7.687	-36.5295
7.6875	-31.0364
7.688	-35.7971
7.6885	-26.9165
7.689	-30.9448
7.6895	-27.4658
7.69	-25.0854
7.6905	-29.3884
7.691	-25.7263
7.6915	-32.8674
7.692	-27.6489
7.6925	-29.2053
7.693	-30.5786
7.6935	-24.5361
7.694	-27.9236
7.6945	-31.6772
7.695	-22.4304
7.6955	-33.5083
7.696	-23.6206
7.6965	-30.5786
7.697	-27.9236
7.6975	-26.1841
7.698	-20.7825
7.6985	-23.1628
7.699	-24.5361
7.6995	-35.0647
7.7	-31.0364
7.7005	-29.8462
7.701	-33.0505
7.7015	-30.5786
7.702	-34.1492
7.7025	-35.1562
7.703	-29.2053
7.7035	-27.5574
7.704	-29.8462
7.7045	-30.7617
7.705	-32.0435
7.7055	-39.6423
7.706	-32.959
7.7065	-30.4871
7.707	-23.8953
7.7075	-29.48
7.708	-21.3318
7.7085	-21.7896
7.709	-22.7051
7.7095	-26.001
7.71	-26.2756
7.7105	-33.4167
7.711	-27.9236
7.7115	-36.1633
7.712	-29.0222
7.7125	-29.1138
7.713	-33.9661
7.7135	-24.8108
7.714	-28.7476
7.7145	-24.9023
7.715	-26.0925
7.7155	-20.2332
7.716	-18.5852
7.7165	-23.1628
7.717	-28.4729
7.7175	-28.1982
7.718	-33.0505
7.7185	-29.7546
7.719	-31.2195
7.7195	-26.4587
7.72	-26.4587
7.7205	-30.304
7.721	-23.5291
7.7215	-26.0925
7.722	-23.8953
7.7225	-25.6348
7.723	-26.001
7.7235	-29.48
7.724	-27.1912
7.7245	-26.825
7.725	-31.5857
7.7255	-36.1633
7.726	-33.9661
7.7265	-33.2336
7.727	-32.7759
7.7275	-30.7617
7.728	-26.3672
7.7285	-30.5786
7.729	-32.3181
7.7295	-33.6914
7.73	-36.2549
7.7305	-34.6069
7.731	-44.22
7.7315	-37.9944
7.732	-49.2554
7.7325	-40.8325
7.733	-34.1492
7.7335	-40.9241
7.734	-41.748
7.7345	-43.0298
7.735	-43.5791
7.7355	-43.7622
7.736	-45.0439
7.7365	-47.699
7.737	-48.6145
7.7375	-48.7061
7.738	-47.8821
7.7385	-49.2554
7.739	-37.1704
7.7395	-40.4663
7.74	-47.0581
7.7405	-39.6423
7.741	-35.3394
7.7415	-46.051
7.742	-47.3328
7.7425	-37.262
7.743	-47.5159
7.7435	-48.6145
7.744	-48.0652
7.7445	-42.9382
7.745	-55.3894
7.7455	-46.3257
7.746	-48.7061
7.7465	-39.6423
7.747	-44.9524
7.7475	-39.6423
7.748	-43.396
7.7485	-33.5083
7.749	-38.4521
7.7495	-40.0085
7.75	-41.1987
7.7505	-47.2412
7.751	-42.2974
7.7515	-44.7693
7.752	-47.4243
7.7525	-36.2549
7.753	-43.7622
7.7535	-43.9453
7.754	-39.093
7.7545	-39.5508
7.755	-45.5017
7.7555	-37.1704
7.756	-31.6772
7.7565	-34.6985
7.757	-34.5154
7.7575	-37.262
7.758	-42.572
7.7585	-37.8113
7.759	-35.7971
7.7595	-37.0789
7.76	-28.656
7.7605	-34.6985
7.761	-33.2336
7.7615	-32.5012
7.762	-34.9731
7.7625	-43.8538
7.763	-31.7688
7.7635	-26.5503
7.764	-27.7405
7.7645	-29.0222
7.765	-31.5857
7.7655	-38.9099
7.766	-34.9731
7.7665	-29.3884
7.767	-28.9307
7.7675	-21.698
7.768	-22.7966
7.7685	-18.0359
7.769	-14.8315
7.7695	-23.3459
7.77	-20.9656
7.7705	-23.0713
7.771	-24.2615
7.7715	-31.0364
7.772	-29.48
7.7725	-26.9165
7.773	-34.8816
7.7735	-27.1912
7.774	-25.4517
7.7745	-32.5928
7.775	-35.0647
7.7755	-36.7126
7.776	-29.2053
7.7765	-34.2407
7.777	-26.4587
7.7775	-30.304
7.778	-29.8462
7.7785	-32.959
7.779	-38.7268
7.7795	-30.1208
7.78	-28.8391
7.7805	-33.8745
7.781	-32.8674
7.7815	-28.1067
7.782	-33.2336
7.7825	-37.9944
7.783	-30.6702
7.7835	-33.2336
7.784	-37.9944
7.7845	-38.7268
7.785	-37.262
7.7855	-31.2195
7.786	-29.48
7.7865	-26.0925
7.787	-30.1208
7.7875	-32.3181
7.788	-29.8462
7.7885	-15.9302
7.789	-25.6348
7.7895	-32.0435
7.79	-24.0784
7.7905	-24.2615
7.791	-22.4304
7.7915	-32.5012
7.792	-18.0359
7.7925	-26.2756
7.793	-30.6702
7.7935	-28.1067
7.794	-25.8179
7.7945	-21.4233
7.795	-20.5994
7.7955	-19.2261
7.796	-23.7122
7.7965	-20.6909
7.797	-22.7966
7.7975	-18.7683
7.798	-24.7192
