Wavenumber	Intensity
nm	a. u.
3200	1758.87590669048
3198	1974.74253607143
3196	2110.58695657143
3194	2166.40916819048
3192	2105.12263561905
3190	2039.28042661905
3188	1953.24663047619
3186	1890.4593947619
3184	1750.10465719048
3182	1806.87617514286
3180	1825.40898690476
3178	1989.71997095238
3176	2150.42450861905
3174	2058.45946728571
3172	1863.99795871429
3170	1882.90062228571
3168	1875.64880766667
3166	1941.64544314286
3164	1913.92832390476
3162	1758.87389019048
3160	1805.40070128571
3158	1803.3720842381
3156	1758.58238985714
3154	1782.33598190476
3152	1866.98601409524
3150	1951.87566338095
3148	1942.67867104762
3146	1951.98396047619
3144	1962.54805485714
3142	1998.14534204762
3140	2149.36614628571
3138	2208.07574404762
3136	2160.53622257143
3134	2233.64370847619
3132	2195.31991709524
3130	1936.15030695238
3128	1703.928513
3126	1518.06337538095
3124	1535.64467447619
3122	1691.49409152381
3120	1797.99159661905
3118	1725.68919290476
3116	1689.62388614286
3114	1588.05873219048
3112	1456.58771209524
3110	1582.76488971429
3108	1813.370553
3106	1864.65077290476
3104	2068.99120952381
3102	2053.04915061905
3100	2058.07812061905
3098	2075.06631014286
3096	1939.58937761905
3094	1811.36805914286
3092	1838.20218633333
3090	1787.09391361905
3088	1795.26006657143
3086	1785.51957038095
3084	1724.59325095238
3082	1809.68533795238
3080	1909.98750190476
3078	1930.65757104762
3076	1902.439282
3074	1897.85437871429
3072	1767.5282122381
3070	1710.71795990476
3068	1666.64138095238
3066	1794.68295152381
3064	1861.63887314286
3062	1924.72919342857
3060	1738.65948633333
3058	1625.3784167619
3056	1475.95702152381
3054	1670.49698428571
3052	1699.84028742857
3050	1684.21824752381
3048	1646.29343938095
3046	1609.09988595238
3044	1465.55353433333
3042	1586.02919619048
3040	1638.9801107619
3038	1624.13360704762
3036	1682.03498238095
3034	1657.670556
3032	1550.78717547619
3030	1544.52029980952
3028	1576.08093042857
3026	1587.7716052381
3024	1677.09499566667
3022	1673.73559390476
3020	1659.61144719048
3018	1681.63368761905
3016	1575.62985152381
3014	1523.46705533333
3012	1573.80170466667
3010	1544.0421097619
3008	1590.57633842857
3006	1680.81465147619
3004	1615.32366247619
3002	1566.04288180952
3000	1613.01904747619
2998	1615.29594433333
2996	1596.51617528571
2994	1718.88158752381
2992	1681.16200490476
2990	1631.43759161905
2988	1591.6924382381
2986	1553.35503480952
2984	1483.76645547619
2982	1564.3788042381
2980	1659.76172657143
2978	1848.12866385714
2976	1883.8414242381
2974	1983.42474171429
2972	1924.37095866667
2970	1790.04050919048
2968	1744.06884771429
2966	1780.62781714286
2964	1766.47405542857
2962	1835.543532
2960	1770.17385485714
2958	1708.77622614286
2956	1679.67414447619
2954	1771.47786414286
2952	1836.58399766667
2950	1831.07581961905
2948	1768.24511752381
2946	1702.11950095238
2944	1673.70316957143
2942	1704.03589147619
2940	1774.54086409524
2938	1898.50452614286
2936	1988.6875227619
2934	1993.79278390476
2932	1977.56372928571
2930	1886.75140995238
2928	1865.17763519048
2926	1855.13620666667
2924	1868.93247914286
2922	1846.81945209524
2920	1849.26321290476
2918	1894.56074547619
2916	1956.68929052381
2914	1930.03253247619
2912	1926.16447261905
2910	1899.85255280952
2908	1792.66742366667
2906	1758.50506771429
2904	1785.75159166667
2902	1797.30936561905
2900	1841.85286747619
2898	1839.6549512381
2896	1774.28610771429
2894	1825.00940285714
2892	1853.56187366667
2890	1787.40713
2888	1752.56923166667
2886	1641.59390314286
2884	1621.45194904762
2882	1691.564076
2880	1761.61837266667
2878	1769.21687057143
2876	1789.048979
2874	1738.83386123809
2872	1668.51887023809
2870	1647.64004766667
2868	1677.14219776191
2866	1689.57673347619
2864	1644.24403457143
2862	1635.72635819048
2860	1620.90081561905
2858	1652.00743004762
2856	1728.02654790476
2854	1752.47893690476
2852	1622.22429714286
2850	1588.63723519048
2848	1564.97574480952
2846	1596.58551961905
2844	1665.18117109524
2842	1662.14249995238
2840	1631.74623866667
2838	1655.57316133333
2836	1692.99582504762
2834	1739.08574395238
2832	1708.94489671429
2830	1551.72437966667
2828	1464.4593317619
2826	1354.47683242857
2824	1342.30118071429
2822	1415.00327185714
2820	1482.65806733333
2818	1484.19577842857
2816	1581.73005195238
2814	1542.12225814286
2812	1559.45946761905
2810	1538.22124
2808	1451.99244790476
2806	1410.04527061905
2804	1485.40918628571
2802	1523.61456652381
2800	1602.45600161905
2798	1546.77769119048
2796	1512.06162128571
2794	1487.75512461905
2792	1492.96227785714
2790	1481.02757333333
2788	1483.89527933333
2786	1449.59644652381
2784	1531.28431161905
2782	1523.34220319048
2780	1544.10560438095
2778	1550.81975847619
2776	1539.48389485714
2774	1459.53697047619
2772	1501.6862027619
2770	1538.85170019048
2768	1571.32560252381
2766	1622.13419085714
2764	1594.50552842857
2762	1477.72658052381
2760	1520.77916690476
2758	1474.0069202381
2756	1430.25819985714
2754	1447.24811580952
2752	1439.9577002381
2750	1450.58636504762
2748	1534.40748471429
2746	1455.84662609524
2744	1470.56282019048
2742	1518.85722471429
2740	1543.1896802381
2738	1533.11495447619
2736	1474.44419871429
2734	1391.34012314286
2732	1336.7223682381
2730	1322.34760214286
2728	1402.32173395238
2726	1421.38058147619
2724	1470.45212857143
2722	1487.09804080952
2720	1485.64092642857
2718	1522.23462647619
2716	1572.99330014286
2714	1486.74203933333
2712	1484.73868614286
2710	1455.98332161905
2708	1477.73921533333
2706	1508.90605214286
2704	1532.07697114286
2702	1508.44227461905
2700	1506.04559480952
2698	1539.3998082381
2696	1552.95802495238
2694	1517.89509052381
2692	1486.53267447619
2690	1440.02093766667
2688	1379.31880661905
2686	1405.47546371429
2684	1428.18760414286
2682	1443.23797033333
2680	1453.36909361905
2678	1464.4509107619
2676	1464.67567704762
2674	1523.05769180952
2672	1576.74088390476
2670	1568.28685466667
2668	1524.20359104762
2666	1483.32049214286
2664	1439.9039807619
2662	1448.452149
2660	1467.427728
2658	1459.48467866667
2656	1486.96557604762
2654	1481.29500947619
2652	1448.37571104762
2650	1446.82490190476
2648	1415.61805809524
2646	1405.93973319048
2644	1432.16716957143
2642	1411.76483614286
2640	1387.63830485714
2638	1381.38944147619
2636	1355.70778290476
2634	1311.186327
2632	1314.25829642857
2630	1361.33144095238
2628	1411.95543466667
2626	1457.85277409524
2624	1461.58053138095
2622	1468.82828947619
2620	1419.469105
2618	1438.39213990476
2616	1406.94506304762
2614	1379.82570761905
2612	1361.32483814286
2610	1381.21786104762
2608	1343.54235357143
2606	1394.99182342857
2604	1387.45077857143
2602	1394.5993832381
2600	1385.29379114286
2598	1372.58045747619
2596	1408.98755180952
2594	1438.21169309524
2592	1427.08806738095
2590	1400.65110057143
2588	1372.16013585714
2586	1373.29080709524
2584	1403.33700595238
2582	1390.49076114286
2580	1394.50249990476
2578	1390.51790242857
2576	1403.34763209524
2574	1446.27801152381
2572	1466.68339933333
2570	1440.33933861905
2568	1427.05881738095
2566	1381.98725166667
2564	1351.67012390476
2562	1362.62535328571
2560	1391.82961404762
2558	1408.03132304762
2556	1414.99433714286
2554	1385.37150995238
2552	1340.87099680952
2550	1331.97693980952
2548	1356.2043852381
2546	1378.45050419048
2544	1425.45509819048
2542	1439.74513061905
2540	1418.25221642857
2538	1408.95568090476
2536	1390.80592957143
2534	1378.97924266667
2532	1392.61125047619
2530	1406.83943880952
2528	1433.03388195238
2526	1421.3463062381
2524	1389.78682485714
2522	1359.01279204762
2520	1352.07300966667
2518	1389.57431028571
2516	1417.16281585714
2514	1468.17423728571
2512	1483.37703638095
2510	1477.28957304762
2508	1457.69660671429
2506	1431.97538528571
2504	1393.21721019048
2502	1401.12849609524
2500	1394.41550795238
2498	1392.87661009524
2496	1411.979452
2494	1462.71883728571
2492	1494.77211133333
2490	1463.64499580952
2488	1416.22590514286
2486	1370.303296
2484	1369.10882933333
2482	1398.9320902381
2480	1398.65537538095
2478	1364.22330471429
2476	1373.4068257619
2474	1432.95972061905
2472	1484.21611747619
2470	1496.69649442857
2468	1459.26569114286
2466	1423.10787957143
2464	1409.40003871429
2462	1406.19858404762
2460	1373.12476819048
2458	1384.36556004762
2456	1364.71121795238
2454	1371.5310252381
2452	1417.95288180952
2450	1436.09559309524
2448	1436.59734
2446	1436.54368090476
2444	1403.56441642857
2442	1398.48213671429
2440	1442.87465171429
2438	1473.63345714286
2436	1466.66274538095
2434	1439.60724557143
2432	1427.22467871429
2430	1419.25715171429
2428	1437.4334842381
2426	1436.14410666667
2424	1429.16326128571
2422	1460.30820457143
2420	1487.32343961905
2418	1452.75325242857
2416	1444.93958266667
2414	1408.848716
2412	1401.38809671429
2410	1419.75619628571
2408	1455.38407404762
2406	1458.50179790476
2404	1458.07521033333
2402	1439.25403319048
2400	1422.64774914286
2398	1402.34628057143
2396	1437.96464704762
2394	1475.63126052381
2392	1449.44377219048
2390	1466.60270419048
2388	1474.74859790476
2386	1470.63061466667
2384	1481.85832985714
2382	1465.91370361905
2380	1412.62383742857
2378	1371.17437461905
2376	1384.27744133333
2374	1390.96774304762
2372	1430.07359428571
2370	1458.05419333333
2368	1458.76076247619
2366	1438.27666095238
2364	1455.47427133333
2362	1425.2625107619
2360	1453.33822795238
2358	1449.30831571429
2356	1421.37044114286
2354	1411.84251357143
2352	1410.82240557143
2350	1422.75799152381
2348	1429.63209261905
2346	1411.00649333333
2344	1403.236358
2342	1396.32541814286
2340	1379.13667519048
2338	1384.673815
2336	1369.68979861905
2334	1373.76095457143
2332	1390.83860357143
2330	1409.25046085714
2328	1402.69649747619
2326	1395.51276961905
2324	1398.69609328571
2322	1381.59078104762
2320	1352.86265095238
2318	1392.9650462381
2316	1422.54088957143
2314	1437.36267847619
2312	1447.38940623809
2310	1407.56771090476
2308	1374.27283833333
2306	1431.83394428571
2304	1440.62268133333
2302	1421.38804514286
2300	1403.16888614286
2298	1398.19828895238
2296	1386.64721895238
2294	1424.17167980952
2292	1430.45976071429
2290	1410.03751009524
2288	1366.76867266667
2286	1359.31102642857
2284	1378.48656409524
2282	1420.34975885714
2280	1450.56760461905
2278	1459.89445266667
2276	1441.01469142857
2274	1416.1029532381
2272	1424.67524361905
2270	1419.07439195238
2268	1399.65210857143
2266	1385.76581433333
2264	1410.87275433333
2262	1437.10302333333
2260	1458.69825709524
2258	1440.98586280952
2256	1412.20851290476
2254	1403.14511538095
2252	1423.89576428571
2250	1418.21851480952
2248	1422.21101
2246	1402.40949366667
2244	1385.65309071429
2242	1404.33345361905
2240	1409.37457466667
2238	1412.20054866667
2236	1449.72400680952
2234	1464.13918042857
2232	1453.42945519048
2230	1440.18140742857
2228	1391.12415052381
2226	1373.07360442857
2224	1372.37606657143
2222	1411.15244714286
2220	1440.39348557143
2218	1471.66647195238
2216	1443.41979595238
2214	1425.02439280952
2212	1399.18849380952
2210	1407.85279466667
2208	1408.22416219048
2206	1434.56850985714
2204	1422.99021333333
2202	1437.15713247619
2200	1423.63820085714
2198	1412.25900519048
2196	1395.76549595238
2194	1397.4913497619
2192	1395.12451704762
2190	1388.288883
2188	1371.65883952381
2186	1392.25913728571
2184	1406.31843842857
2182	1432.05132190476
2180	1455.12769942857
2178	1455.0661667619
2176	1420.66714042857
2174	1420.41971671429
2172	1413.2941967619
2170	1420.99492247619
2168	1442.35058795238
2166	1450.52707033333
2164	1456.444254
2162	1476.924392
2160	1466.64380128571
2158	1451.94285690476
2156	1444.20714333333
2154	1428.83586561905
2152	1460.66231938095
2150	1470.16269566667
2148	1474.21871228571
2146	1471.5856387619
2144	1488.81711080952
2142	1500.52449685714
2140	1475.34836771429
2138	1457.25330842857
2136	1459.57998652381
2134	1457.87914633333
2132	1484.83397028571
2130	1487.45976085714
2128	1450.46771619048
2126	1452.82924785714
2124	1474.35801457143
2122	1453.42185657143
2120	1447.81537828571
2118	1444.76006652381
2116	1457.15602995238
2114	1482.77689590476
2112	1505.98128128571
2110	1475.91361728571
2108	1455.08106171429
2106	1438.57579857143
2104	1433.80337385714
2102	1437.06662861905
2100	1445.25745338095
2098	1437.34826052381
2096	1440.43592752381
2094	1411.90461890476
2092	1414.12591280952
2090	1425.41459166667
2088	1449.91417542857
2086	1481.35392771429
2084	1499.36337804762
2082	1492.88604219048
2080	1473.95716271429
2078	1466.21884580952
2076	1457.74276642857
2074	1457.84849666667
2072	1454.49571414286
2070	1459.09411438095
2068	1455.33474857143
2066	1474.45490847619
2064	1493.7476212381
2062	1494.70980385714
2060	1495.21744519048
2058	1498.0530672381
2056	1501.13397147619
2054	1487.2652927619
2052	1492.62656295238
2050	1502.073078
2048	1495.39687066667
2046	1506.2281067619
2044	1510.05150138095
2042	1495.08319409524
2040	1493.2793157619
2038	1495.02214595238
2036	1470.51900428571
2034	1497.37852919048
2032	1522.17050114286
2030	1536.65280014286
2028	1546.31699942857
2026	1523.33682228571
2024	1489.41686209524
2022	1497.91583414286
2020	1492.77704842857
2018	1505.98143309524
2016	1524.86447861905
2014	1523.28465152381
2012	1526.63637880952
2010	1540.83878333333
2008	1530.75813304762
2006	1557.890915
2004	1571.75681642857
2002	1577.75206228571
2000	1553.68426528571
1998	1533.67251866667
1996	1518.15418328571
1994	1536.66359890476
1992	1532.05196071429
1990	1544.74943895238
1988	1516.07208666667
1986	1497.10912757143
1984	1510.02651552381
1982	1530.30811152381
1980	1519.62889014286
1978	1532.940343
1976	1540.37803061905
1974	1537.55989838095
1972	1550.91368042857
1970	1591.18380571429
1968	1589.99296780952
1966	1582.16999204762
1964	1578.10930080952
1962	1560.79365980952
1960	1555.96698180952
1958	1574.66191661905
1956	1584.13962666667
1954	1581.43312552381
1952	1586.40009861905
1950	1585.01682957143
1948	1603.15410352381
1946	1604.75761933333
1944	1608.78662680952
1942	1601.83586914286
1940	1607.30155333333
1938	1598.61832633333
1936	1597.67714728571
1934	1574.81211314286
1932	1561.88806166667
1930	1558.27142157143
1928	1585.07755461905
1926	1600.3639282381
1924	1603.22044485714
1922	1591.4388047619
1920	1599.38273409524
1918	1594.084866
1916	1602.32940409524
1914	1611.02088642857
1912	1617.65777123809
1910	1630.12622785714
1908	1656.51487519048
1906	1647.65697709524
1904	1645.1287347619
1902	1631.69573366667
1900	1616.9576742381
1898	1630.34201204762
1896	1672.9286312381
1894	1682.7323637619
1892	1697.94422395238
1890	1658.31846266667
1888	1636.75759080952
1886	1640.16140514286
1884	1653.37657271429
1882	1652.44422928571
1880	1672.56975595238
1878	1665.48167104762
1876	1692.33809404762
1874	1716.38893119048
1872	1702.78797271429
1870	1685.36877571429
1868	1692.21130585714
1866	1700.65591471429
1864	1719.38096671429
1862	1715.83806566667
1860	1707.56935442857
1858	1688.68651928571
1856	1676.352128
1854	1668.97840842857
1852	1668.44256457143
1850	1677.320814
1848	1687.63200485714
1846	1707.39574909524
1844	1712.17765714286
1842	1729.03834428571
1840	1743.06399352381
1838	1747.61334052381
1836	1719.43702547619
1834	1692.43560880952
1832	1682.86046961905
1830	1706.34119428571
1828	1738.09682214286
1826	1750.53476714286
1824	1757.86007366667
1822	1730.41721871429
1820	1711.5480717619
1818	1719.39779942857
1816	1759.10785790476
1814	1774.7786707619
1812	1796.21261938095
1810	1776.54905604762
1808	1765.03116138095
1806	1758.32701366667
1804	1773.78419219048
1802	1786.30401957143
1800	1792.84800342857
1798	1773.32815647619
1796	1767.49269447619
1794	1739.78799466667
1792	1734.97404957143
1790	1743.55492133333
1788	1768.73083028571
1786	1783.41912809524
1784	1793.00764819048
1782	1790.849634
1780	1801.75337780952
1778	1803.40092052381
1776	1824.31070095238
1774	1817.55810190476
1772	1815.32619604762
1770	1829.6218772381
1768	1843.91121119048
1766	1865.91877238095
1764	1872.51722280952
1762	1867.43347828571
1760	1857.50692928571
1758	1862.07544452381
1756	1849.689636
1754	1855.96543090476
1752	1849.29684347619
1750	1854.76490704762
1748	1843.17122961905
1746	1854.16810728571
1744	1852.68394871429
1742	1872.8575757619
1740	1869.18029538095
1738	1874.2789547619
1736	1878.6336562381
1734	1883.07019066667
1732	1867.97308357143
1730	1873.17688057143
1728	1869.65579609524
1726	1874.6109867619
1724	1888.3219057619
1722	1873.06427380952
1720	1869.06822233333
1718	1881.043894
1716	1889.36844138095
1714	1898.23265361905
1712	1921.06200604762
1710	1923.24986204762
1708	1924.56203109524
1706	1906.61218066667
1704	1886.99441733333
1702	1886.16060242857
1700	1909.51579095238
1698	1932.09484942857
1696	1948.38176090476
1694	1944.31068780952
1692	1948.59037757143
1690	1940.61406757143
1688	1951.05820038095
1686	1955.16517080952
1684	1961.23563533333
1682	1961.79528609524
1680	1968.39518285714
1678	1976.58464633333
1676	2010.41497014286
1674	2022.17103790476
1672	2016.89332128571
1670	1997.152
1668	1985.45713238095
1666	1990.07159347619
1664	2025.11533142857
1662	2064.38488933333
1660	2121.06147109524
1658	2170.57779861905
1656	2223.06327342857
1654	2250.04284966667
1652	2274.24573828571
1650	2276.40104566667
1648	2269.82548161905
1646	2233.04140909524
1644	2191.26264138095
1642	2132.9049827619
1640	2095.01506466667
1638	2057.57414433333
1636	2047.65171304762
1634	2060.00743114286
1632	2078.51809280952
1630	2104.34855014286
1628	2133.25891819048
1626	2149.8463127619
1624	2188.73846042857
1622	2224.84657028571
1620	2263.25245038095
1618	2349.292687
1616	2462.11858428571
1614	2579.80909571429
1612	2705.1688132381
1610	2690.03223628571
1608	2869.63601004762
1606	3470.1152827619
1604	3797.99698671429
1602	3846.62272928571
1600	3653.97646585714
1598	3238.62316209524
1596	3059.89548766667
1594	3286.35167904762
1592	3310.39572104762
1590	3278.91392490476
1588	3222.28552561905
1586	3237.46179009524
1584	3324.87763957143
1582	3462.29120338095
1580	3592.23639519048
1578	3622.32221266667
1576	3514.90338828571
1574	3325.00563133333
1572	3072.98944742857
1570	2843.02579690476
1568	2677.7163277619
1566	2553.938651
1564	2482.72494614286
1562	2433.75450461905
1560	2396.312484
1558	2377.03701961905
1556	2376.65005880952
1554	2384.24982671429
1552	2406.94141952381
1550	2433.46734247619
1548	2454.14142638095
1546	2475.61588661905
1544	2510.90175109524
1542	2540.24506519048
1540	2573.7497252381
1538	2626.03825719048
1536	2657.39124380952
1534	2691.2091197619
1532	2746.99447580952
1530	2787.2223822381
1528	2862.45553395238
1526	2984.44392990476
1524	3079.91425895238
1522	3149.06613719048
1520	3192.69997271429
1518	3153.69628485714
1516	3096.25766042857
1514	3033.71275380952
1512	2943.30121361905
1510	2850.33545885714
1508	2765.6527767619
1506	2684.47088104762
1504	2621.17888861905
1502	2583.93208723809
1500	2552.03360319048
1498	2520.30325242857
1496	2508.98765704762
1494	2476.2927582381
1492	2472.20817447619
1490	2492.05645333333
1488	2531.30363114286
1486	2579.2650847619
1484	2662.4298997619
1482	2707.25274909524
1480	2751.27237480952
1478	2800.61330271429
1476	2849.45882119048
1474	2890.90011504762
1472	2977.59942138095
1470	3102.26520542857
1468	3182.90434271429
1466	3249.26883442857
1464	3229.36783695238
1462	3148.62587085714
1460	3080.334844
1458	3063.48980980952
1456	3011.59562585714
1454	2973.25770342857
1452	2914.77446928571
1450	2881.59743642857
1448	2874.14904
1446	2915.76137495238
1444	2946.22894714286
1442	2931.96171909524
1440	2892.27757638095
1438	2866.58176671429
1436	2818.16260847619
1434	2786.84026
1432	2766.09369852381
1430	2696.70818442857
1428	2645.14767161905
1426	2621.52598438095
1424	2565.30951490476
1422	2522.79034447619
1420	2461.06953633333
1418	2395.8998932381
1416	2366.51521638095
1414	2371.53324514286
1412	2385.72490604762
1410	2413.7762197619
1408	2411.94924538095
1406	2407.83753804762
1404	2408.76261471429
1402	2404.72207661905
1400	2417.19152
1398	2411.98414419048
1396	2381.64593547619
1394	2356.45238604762
1392	2369.87591590476
1390	2407.02710671429
1388	2481.53061485714
1386	2554.90442652381
1384	2606.30598971429
1382	2647.97824995238
1380	2683.62950066667
1378	2753.05354742857
1376	2836.8825112381
1374	2937.62620509524
1372	3055.45690266667
1370	3158.94430204762
1368	3235.70201757143
1366	3276.55406823809
1364	3270.49371828571
1362	3255.86739423809
1360	3250.31031790476
1358	3246.85560138095
1356	3297.86569071429
1354	3324.03688528571
1352	3442.31963890476
1350	3640.10476838095
1348	3946.24781514286
1346	4322.77486561905
1344	4808.39751557143
1342	5292.41077642857
1340	5780.48303842857
1338	6128.68430652381
1336	6292.22277414286
1334	6160.86119085714
1332	5795.7207977619
1330	5290.69151690476
1328	4759.426139
1326	4302.73010742857
1324	4001.83934666667
1322	3809.13837695238
1320	3651.48334761905
1318	3534.05828723809
1316	3450.53971161905
1314	3388.17458242857
1312	3338.356041
1310	3307.10408890476
1308	3247.06075342857
1306	3227.00974380952
1304	3252.57601290476
1302	3279.31744957143
1300	3306.42827195238
1298	3322.09285009524
1296	3300.85920871429
1294	3260.35370880952
1292	3218.82936457143
1290	3144.32249057143
1288	3099.24351942857
1286	3046.67163661905
1284	2996.41627647619
1282	2993.4167557619
1280	3072.29962157143
1278	3168.02625909524
1276	3263.51432147619
1274	3306.96486823809
1272	3279.47153438095
1270	3249.13938976191
1268	3211.55261042857
1266	3221.36977438095
1264	3233.55660528571
1262	3244.24792457143
1260	3216.31127823809
1258	3146.41047214286
1256	3030.89010447619
1254	2939.54198747619
1252	2845.27436995238
1250	2788.5835887619
1248	2750.33857857143
1246	2732.57742619048
1244	2747.09762319048
1242	2750.02575419048
1240	2756.349652
1238	2824.29361604762
1236	2944.72039642857
1234	3124.59328828571
1232	3290.68617642857
1230	3334.96284785714
1228	3265.10445885714
1226	3095.48213042857
1224	2897.86376247619
1222	2763.29438761905
1220	2691.99948957143
1218	2672.9111027619
1216	2713.43528895238
1214	2733.15832980952
1212	2738.16880795238
1210	2787.98507104762
1208	2871.21903842857
1206	3014.10322557143
1204	3229.57001795238
1202	3430.26665538095
1200	3568.36261895238
1198	3621.07959066667
1196	3585.32411457143
1194	3477.3522392381
1192	3353.95579919048
1190	3207.31999457143
1188	3097.75884990476
1186	3011.18756990476
1184	2956.45420757143
1182	2895.5802297619
1180	2829.47087114286
1178	2751.31277519048
1176	2701.36612452381
1174	2668.73729452381
1172	2655.1657987619
1170	2646.79677419048
1168	2681.02107704762
1166	2726.0420097619
1164	2746.00649780952
1162	2770.09231442857
1160	2775.25956357143
1158	2739.396931
1156	2709.59132042857
1154	2641.79374066667
1152	2566.86058780952
1150	2506.6886767619
1148	2484.16493538095
1146	2480.23255052381
1144	2463.18452547619
1142	2448.92288466667
1140	2443.1909492381
1138	2428.6495402381
1136	2444.04958190476
1134	2466.08273414286
1132	2481.67901166667
1130	2524.98291057143
1128	2581.77814490476
1126	2644.05176966667
1124	2682.13411371429
1122	2661.51130604762
1120	2622.20216214286
1118	2582.04649561905
1116	2569.50880338095
1114	2612.27922271429
1112	2688.94148595238
1110	2777.23633395238
1108	2871.41490971429
1106	2954.26833204762
1104	2989.85758809524
1102	2995.73147928571
1100	2975.73217361905
1098	2950.71263819048
1096	2939.8576582381
1094	2964.56771071428
1092	2987.64087866667
1090	3019.92585561905
1088	3031.45465433333
1086	3012.1667827619
1084	2955.47986552381
1082	2850.90489147619
1080	2723.06899395238
1078	2634.3858102381
1076	2565.46510919048
1074	2535.39569957143
1072	2528.58240123809
1070	2506.95121957143
1068	2494.78933204762
1066	2497.81786933333
1064	2506.01635495238
1062	2505.53903447619
1060	2529.24782661905
1058	2531.66762604762
1056	2523.13976733333
1054	2518.43662395238
1052	2523.82294071429
1050	2506.3301102381
1048	2491.58254985714
1046	2451.98305080952
1044	2414.07013061905
1042	2391.37054557143
1040	2386.47382780952
1038	2411.90258704762
1036	2444.41832280952
1034	2473.51160328571
1032	2511.96342995238
1030	2548.07164719048
1028	2588.48885457143
1026	2665.04311966667
1024	2736.37982842857
1022	2764.69218357143
1020	2771.33675904762
1018	2725.9814387619
1016	2638.94980138095
1014	2563.49300695238
1012	2500.73685595238
1010	2429.8293652381
1008	2379.55770614286
1006	2364.52928990476
1004	2356.40287852381
1002	2373.62086685714
1000	2408.68000552381
998	2403.46040109524
996	2380.62303723809
994	2373.26003780952
992	2362.05183509524
990	2365.72430957143
988	2400.06473785714
986	2415.2389187619
984	2428.79069852381
982	2427.33044733333
980	2450.61078161905
978	2469.56030519048
976	2509.65396057143
974	2537.2073992381
972	2539.25887271429
970	2547.65104085714
968	2562.47622361905
966	2571.25691257143
964	2601.79043257143
962	2641.66387914286
960	2685.41662104762
958	2740.55941647619
956	2774.36464680952
954	2802.7036287619
952	2828.25656171429
950	2845.77108542857
948	2846.13991433333
946	2805.61908928571
944	2747.42779209524
942	2696.13386195238
940	2674.1348762381
938	2676.63876990476
936	2679.37729090476
934	2684.11023061905
932	2687.9174567619
930	2663.84005590476
928	2644.43464352381
926	2659.58522814286
924	2652.12811690476
922	2666.70969138095
920	2665.75738519048
918	2631.05150995238
916	2607.26235685714
914	2598.81504123809
912	2588.58402814286
910	2588.00350180952
908	2571.22997166667
906	2561.83632580952
904	2549.22734771429
902	2519.63712114286
900	2506.20634895238
898	2506.36430638095
896	2524.05976971429
894	2528.14094028571
892	2546.25632452381
890	2538.11711109524
888	2508.04479395238
886	2475.24354504762
884	2469.83345295238
882	2450.956332
880	2467.61172485714
878	2489.28478157143
876	2500.42370419048
874	2501.25075895238
872	2519.933042
870	2509.77358857143
868	2500.55696623809
866	2506.92578438095
864	2510.64464114286
862	2511.679644
860	2545.89653971429
858	2540.13512352381
856	2533.35595609524
854	2542.72868904762
852	2541.26802690476
850	2538.11411680952
848	2565.1011637619
846	2564.73039095238
844	2573.97000247619
842	2583.28938880952
840	2594.31560038095
838	2619.28119371429
836	2632.13199747619
834	2631.46591942857
832	2624.93417633333
830	2614.73075090476
828	2619.73521285714
826	2615.0839897619
824	2621.21414761905
822	2623.49074704762
820	2618.06050338095
818	2609.6071732381
816	2633.76850833333
814	2649.98367466667
812	2689.46291838095
810	2721.71829366667
808	2737.20255109524
806	2690.35590185714
804	2671.65025642857
802	2651.4401437619
800	2634.2577487619
798	2655.31670314286
796	2686.18786547619
794	2690.78631361905
792	2687.92538885714
790	2652.33657385714
788	2618.06653361905
786	2603.95974709524
784	2624.32068104762
782	2676.77468033333
780	2782.64973652381
778	2876.10901042857
776	2971.43019814286
774	3007.11747590476
772	3010.08727033333
770	2962.83391495238
768	2950.37052380952
766	2942.548292
764	2920.1547317619
762	2897.44019419048
760	2897.53935295238
758	2888.02424742857
756	2909.78833571429
754	2955.24038528571
752	2956.95008085714
750	2950.80805157143
748	2926.94024428571
746	2858.94665809524
744	2799.13858038095
742	2762.20758433333
740	2748.37180557143
738	2758.62500780952
736	2759.7544192381
734	2729.33939485714
732	2703.13409095238
730	2680.7934502381
728	2668.62168014286
726	2688.82452947619
724	2708.8805087619
722	2727.98827080952
720	2762.72789633333
718	2768.30731028571
716	2745.30974123809
714	2735.84818042857
712	2709.490082
710	2723.47585357143
708	2773.69402052381
706	2791.07819680952
704	2799.14338571429
702	2783.73576747619
700	2760.97821514286
698	2769.69611357143
696	2792.08953409524
694	2796.17960157143
692	2811.59385171429
690	2831.2547322381
688	2855.75627666667
686	2883.38340028571
684	2920.00472914286
682	2925.087547
680	2919.52070190476
678	2909.44045014286
676	2865.33732557143
674	2837.41768628571
672	2827.17182619048
670	2820.93690928571
668	2816.11473771429
666	2821.97062966667
664	2827.20578638095
662	2849.83462719048
660	2867.27571942857
658	2871.19835747619
656	2866.18726728571
654	2867.89983642857
652	2868.17424666667
650	2879.57897571429
648	2894.69944419048
646	2890.53371604762
644	2907.93242142857
642	2953.4812327619
640	3008.51223938095
638	3097.94172657143
636	3205.56104161905
634	3311.97995152381
632	3398.46349309524
630	3486.77218080952
628	3495.90021233333
626	3451.49940185714
624	3345.50389409524
622	3206.61678361905
620	3097.314071
618	3046.05131738095
616	3022.31942233333
614	3020.06971504762
612	3020.52504614286
610	2999.44547385714
608	3008.04093595238
606	3017.61453219048
604	3034.22382990476
602	3033.27478771429
600	3013.716093
598	3009.34732790476
596	3022.47227828571
594	3050.37348566667
592	3111.296925
590	3136.50696104762
588	3104.20788752381
586	3093.15641809524
584	3077.13224785714
582	3080.36613895238
580	3130.64556871429
578	3174.28445190476
576	3196.10451942857
574	3217.7626227619
572	3210.85366614286
570	3216.5930377619
568	3236.57082795238
566	3261.0781887619
564	3297.31239871429
562	3342.35565595238
560	3422.20452347619
558	3520.79850180952
556	3595.93945857143
554	3571.51667690476
552	3475.90949847619
550	3322.02847004762
548	3375.16963485714
546	3442.66544014286
544	3477.88308761905
542	3464.14569428571
540	3388.63232661905
538	3276.12006995238
536	3291.67831252381
534	3276.75196509524
532	3266.39465280952
530	3293.53000947619
528	3348.20030519048
526	3429.43552352381
524	3511.32186642857
522	3559.31714095238
520	3569.36389795238
518	3542.22591495238
516	3502.77962328571
514	3472.1601097619
512	3451.44518128571
510	3405.64175
508	3386.33614552381
506	3392.17800904762
504	3427.55916647619
502	3453.9802347619
500	3452.63535385714
498	3400.817293
496	3363.10185933333
494	3318.89627833333
492	3302.20627233333
490	3328.60255290476
488	3362.11809642857
486	3390.65627066667
484	3407.05254257143
482	3396.73025371429
480	3422.4232577619
478	3495.29232357143
476	3554.92517885714
474	3581.24665157143
472	3570.33494038095
470	3550.86153790476
468	3527.98175242857
466	3508.83766614286
464	3480.06607671429
462	3458.93804790476
460	3435.54857966667
458	3469.42753861905
456	3475.89892033333
454	3474.92163280952
452	3460.52741595238
450	3452.752201
448	3428.65835819048
446	3435.76557171429
444	3431.94653790476
442	3443.94349314286
440	3465.13481733333
438	3471.17464233333
436	3496.69072919048
434	3487.07502238095
432	3475.13690871429
430	3490.20426885714
428	3508.20916552381
426	3534.82799195238
424	3576.58663061905
422	3619.84530971428
420	3657.59953595238
418	3697.25020838095
416	3708.02800238095
414	3720.78877490476
412	3711.42796680952
410	3715.43277371429
408	3695.25985542857
406	3671.83430495238
404	3621.83952314286
402	3585.22311147619
400	3564.59526585714
398	3555.46205609524
396	3590.88158628571
394	3607.80579038095
392	3612.11172271429
390	3565.80994823809
388	3544.21915333333
386	3542.90963709524
384	3584.99381780952
382	3606.13974119048
380	3641.27564771429
378	3605.93973861905
376	3633.62736885714
374	3656.48215152381
372	3688.27837585714
370	3738.59044390476
368	3796.87606804762
366	3870.47711280952
364	3990.19618152381
362	4035.73481819048
360	4048.82052347619
358	3989.22775266667
356	3890.57706952381
354	3802.84179390476
352	3752.18603352381
350	3722.61178228571
348	3756.9232942381
346	3762.77436247619
344	3766.12754042857
342	3742.6400307619
340	3735.14697495238
338	3732.87515357143
336	3754.7049607619
334	3752.02014657143
332	3769.10836933333
330	3799.87439080952
328	3853.17160671429
326	3885.27802514286
324	3878.58483495238
322	3856.68322933333
320	3850.43181433333
318	3865.07599928571
316	3883.29276395238
314	3899.16219961905
312	3905.18413647619
310	3922.30972019048
308	3932.971162
306	3926.10962261905
304	3877.3324462381
302	3854.66836695238
300	3832.78546847619
298	3820.69550709524
296	3794.07048214286
294	3797.80900285714
292	3799.16987890476
290	3852.10190828571
288	3878.31520538095
286	3846.37730547619
284	3895.74805833333
282	3943.03884428571
280	3963.20780938095
278	4008.27662528571
276	4000.27684961905
274	3939.98458090476
272	3976.61277571429
270	3940.84894457143
268	3907.126486
266	3925.0973517619
264	3949.47533561905
262	3952.4558272381
260	3934.85435157143
258	3917.73885561905
256	3913.12887528571
254	3953.15597714286
252	3991.19141666667
250	3992.71563495238
248	3972.23935428571
246	3975.48013452381
244	3978.200457
242	3966.65820495238
240	3946.42385071429
238	3949.84972352381
236	3971.17794052381
234	3998.61044066667
232	4009.49050419048
230	4003.21003404762
228	3990.418845
226	3981.47385709524
224	3982.96658752381
222	3983.63024633333
220	3974.5332847619
218	4017.52173252381
216	4036.58626209524
214	4017.49520928571
212	4019.33867147619
210	4007.40126657143
208	4008.24818466667
206	4003.88424414286
204	4020.61916385777
202	4043.38317057118
200	4072.17626428232
