344.09	57484
344.783	57363
345.475	57048
346.175	56929
346.866	57009
347.557	57045
348.255	56846
348.945	57098
349.634	56829
350.33	56968
351.019	56899
351.707	56895
352.394	56872
353.088	56829
353.775	56967
354.46	56905
355.153	57161
355.838	57080
356.522	56904
357.213	56666
357.897	56876
358.58	56818
359.269	56652
359.951	56599
360.632	56451
361.32	56740
362.001	57123
362.681	56910
363.36	56718
364.046	56620
364.725	56609
365.402	56579
366.087	56522
366.764	56499
367.44	56669
368.123	56229
368.799	56530
369.474	56415
370.155	56511
370.829	56518
371.503	56480
372.183	56636
372.855	56540
373.527	56625
374.206	56803
374.876	56442
375.547	56329
376.217	56571
376.894	56516
377.563	56233
378.231	56277
378.906	56195
379.574	56441
380.241	56473
380.914	56174
381.58	56168
382.246	56207
382.918	56178
383.583	56410
384.247	55991
384.918	56157
385.581	56266
386.243	55926
386.906	55880
387.574	55958
388.236	55914
388.896	55998
389.564	56249
390.223	56207
390.883	56064
391.548	55930
392.207	55951
392.865	56041
393.529	55841
394.186	55939
394.842	55986
395.505	55711
396.161	55392
396.816	55830
397.47	55974
398.131	55931
398.785	55940
399.438	55856
400.097	55551
400.749	55532
401.401	55606
402.059	55776
402.71	55899
403.36	55650
404.017	55469
404.666	55762
405.315	55706
405.97	55483
406.618	55708
407.265	55691
407.912	55440
408.565	55303
409.211	55693
409.857	55535
410.509	55373
411.153	55281
411.797	55415
412.448	55484
413.091	55509
413.734	55605
414.383	55279
415.024	55229
415.666	55589
416.313	55370
416.954	55262
417.593	55327
418.233	55356
418.879	55150
419.517	55220
420.155	55418
420.799	55297
421.436	55295
422.073	55291
422.716	55430
423.352	55347
423.987	54853
424.628	55225
425.263	55302
425.897	55138
426.537	54949
427.17	55066
427.802	55128
428.441	55201
429.072	54936
429.703	55219
430.334	55158
430.971	55186
431.601	55148
432.23	54998
432.865	55173
433.494	55136
434.122	55410
434.756	55161
435.383	55353
436.009	55309
436.642	55164
437.268	55309
437.893	55474
438.524	55323
439.148	55390
439.772	55435
440.402	55666
441.025	55435
441.647	55844
442.269	55655
442.898	55999
443.519	55965
444.139	55987
444.766	56220
445.386	56163
446.005	56244
446.631	56275
447.249	56367
447.867	56674
448.491	56600
449.108	56929
449.725	56661
450.347	57000
450.963	57348
451.578	57260
452.193	57582
452.814	57769
453.428	58017
454.041	58451
454.661	58898
455.274	58852
455.886	59475
456.504	59479
457.115	59934
457.726	60218
458.343	60582
458.953	60703
459.562	61257
460.178	61644
460.786	61833
461.395	62208
462.002	62267
462.616	62981
463.223	63689
463.829	64383
464.442	65102
465.047	65761
465.652	66267
466.263	66861
466.868	67867
467.471	68539
468.081	69131
468.684	69554
469.287	70321
469.895	70506
470.497	71170
471.098	71548
471.699	71844
472.305	72294
472.905	72345
473.504	72576
474.11	72801
474.708	72756
475.307	72504
475.911	72534
476.508	71995
477.105	71616
477.707	71364
478.303	71168
478.899	70637
479.5	70254
480.095	69638
480.689	69130
481.283	68999
481.883	69068
482.476	68584
483.068	67823
483.667	67901
484.258	67755
484.85	67291
485.447	67202
486.037	67213
486.627	66871
487.223	66429
487.812	66196
488.401	66088
488.995	66019
489.583	65593
490.171	65190
490.758	65027
491.351	64850
491.937	64329
492.523	64279
493.114	64053
493.699	63470
494.283	63064
494.874	63073
495.457	62836
496.041	62503
496.629	62187
497.212	61586
497.794	61186
498.381	61087
498.963	60404
499.543	60286
500.13	60051
500.71	59777
501.289	59734
501.868	59379
502.453	59000
503.031	58894
503.609	58696
504.192	58456
504.769	58256
505.346	57916
505.928	57757
506.504	57869
507.079	57508
507.66	57267
508.234	57097
508.808	57164
509.388	57078
509.961	56858
510.534	56612
511.107	56363
511.685	56210
512.256	56018
512.827	55867
513.404	55912
513.975	55899
514.545	55466
515.12	55397
515.689	55735
516.258	55363
516.832	55386
517.4	55195
517.968	55023
518.541	54980
519.107	54938
519.674	54607
520.239	54485
520.811	54504
521.376	54131
521.941	54298
522.511	54132
523.075	54059
523.638	54002
524.207	54165
524.77	54115
525.332	53746
525.899	53701
526.461	53661
527.022	53753
527.588	53733
528.149	53335
528.708	53493
529.268	53776
529.833	53573
530.391	53516
530.949	53339
531.513	53390
532.07	53278
532.627	53375
533.19	53375
533.746	53203
534.302	53146
534.863	53115
535.418	53162
535.973	53172
536.533	53484
537.087	53300
537.64	52824
538.199	53090
538.751	53252
539.304	52983
539.856	53143
540.413	53103
540.964	53030
541.514	52886
542.07	53004
542.62	52830
543.17	52850
543.725	52900
544.273	52789
544.822	52966
545.375	52757
545.923	52749
546.47	52898
547.022	52764
547.569	52781
548.114	52658
548.66	52693
549.211	52666
549.756	52783
550.3	52886
550.85	52704
551.393	52576
551.936	52662
552.485	52677
553.027	52869
553.569	53043
554.117	53196
554.658	53184
555.199	52949
555.745	53007
556.285	53160
556.825	53276
557.364	52830
557.909	52973
558.447	53030
558.985	53162
559.529	53042
560.066	52927
560.603	53139
561.146	53007
561.682	52948
562.218	52965
562.759	53352
563.294	53326
563.829	53353
564.369	53082
564.903	53024
565.436	53322
565.969	52851
566.508	53293
567.04	53180
567.572	53378
568.109	53567
568.641	53311
569.172	53328
569.708	53412
570.238	53244
570.768	52995
571.303	53170
571.832	53290
572.36	53255
572.894	53097
573.422	52951
573.949	53213
574.477	53164
575.009	53040
575.535	53112
576.061	53243
576.592	53237
577.118	53213
577.643	53352
578.173	53425
578.697	53633
579.22	53729
579.749	53692
580.272	53903
580.795	54057
581.323	53988
581.845	54374
582.366	54248
582.887	54108
583.414	54348
583.934	54613
584.454	54466
584.979	54752
585.498	54277
586.017	54169
586.541	54462
587.06	54701
587.577	54564
588.1	54389
588.617	54501
589.134	54584
589.656	54676
590.172	54644
590.687	54714
591.208	54825
591.723	54798
592.237	54967
592.752	55161
593.271	55345
593.784	55268
594.297	55194
594.815	55650
595.328	55345
595.839	55672
596.356	55317
596.868	55617
597.379	55499
597.894	55442
598.405	55522
598.914	55512
599.429	55193
599.938	55465
600.447	55503
600.955	55490
601.468	55312
601.976	55178
602.483	55366
602.995	55263
603.502	55230
604.008	55280
604.519	55199
605.025	55202
605.53	55044
606.04	54714
606.544	54925
607.048	55202
607.557	54615
608.06	54886
608.563	54886
609.066	54763
609.573	54680
610.075	54687
610.577	54423
611.083	54425
611.584	54617
612.084	54476
612.59	54312
613.089	54204
613.589	54015
614.093	53734
614.592	53758
615.09	53518
615.593	53525
616.091	53421
616.588	53618
617.085	53135
617.587	52838
618.083	52685
618.579	52753
619.079	52351
619.574	52372
620.069	52230
620.569	52344
621.063	51932
621.557	51692
622.055	51752
622.548	51511
623.041	51110
623.538	51235
624.03	51044
624.522	50845
625.013	50973
625.509	50691
626	50557
626.49	50394
626.985	50448
627.475	50453
627.964	50183
628.458	50226
628.946	50049
629.434	50175
629.927	50294
630.415	50067
630.902	49767
631.394	49573
631.88	49851
632.366	49960
632.857	49533
633.343	49618
633.828	49517
634.312	49813
634.802	49778
635.286	49663
635.77	49908
636.258	49647
636.741	49404
637.224	49507
637.711	49547
638.193	49317
638.675	49375
639.161	49645
639.642	49606
640.122	49491
640.608	49526
641.088	49424
641.567	49277
642.047	49523
642.53	49433
643.009	49400
643.487	49421
643.97	49187
644.448	49437
644.925	49257
645.407	49517
645.883	49457
646.36	49579
646.84	49284
647.316	49526
647.791	49678
648.271	49751
648.746	49924
649.22	49965
649.694	50264
650.172	50098
650.645	50210
651.118	50343
651.596	50388
652.068	50475
652.54	50538
653.016	50677
653.487	50638
653.958	50668
654.434	50643
654.904	50556
655.374	50428
655.848	50439
656.317	50364
656.786	50103
657.255	49989
657.728	49957
658.196	49825
658.663	49639
659.135	49402
659.602	49444
660.069	49235
660.54	49106
661.006	49111
661.471	49000
661.941	48961
662.406	48793
662.871	48688
663.34	48641
663.804	48562
664.267	48198
664.731	48337
665.199	48056
665.661	48105
666.123	48214
666.59	48142
667.052	48120
667.513	48332
667.979	48222
668.44	48241
668.9	48181
669.365	48278
669.824	48230
670.284	48301
670.748	48274
671.206	48251
671.665	48172
672.128	48180
672.585	48117
673.043	48106
673.5	48221
673.962	48333
674.418	48257
674.874	48073
675.335	48063
675.79	48225
676.245	48122
676.705	48256
677.159	48215
677.614	48276
678.072	48407
678.526	48305
678.979	48301
679.437	48293
679.889	48487
680.342	48449
680.794	48424
681.25	48156
681.701	48107
682.152	48204
682.608	48093
683.058	47739
683.508	47910
683.963	47657
684.412	47844
684.861	47815
685.315	47592
685.763	47727
686.212	47802
686.664	47754
687.112	47506
687.559	47488
688.006	47400
688.457	47286
688.903	47107
689.349	47097
689.8	47088
690.245	46944
690.69	46559
691.139	46921
691.584	46773
692.028	46632
692.476	46687
692.92	46797
693.363	46679
693.81	46288
694.253	46151
694.695	45834
695.137	45891
695.555	46061
696.02	45984
696.438	45626
696.902	45480
697.319	45519
697.782	45362
698.199	45371
698.661	45431
699.077	45262
699.539	45383
699.955	45273
700.416	45216
700.877	45127
701.291	44995
701.752	44803
702.166	44801
702.625	44888
703.039	44603
703.498	44692
703.911	44681
704.369	44638
704.781	44554
705.239	44535
705.651	44424
706.108	44375
706.519	44477
706.975	44300
707.386	44139
707.842	44295
708.297	44180
708.707	43859
709.161	43889
709.571	43774
710.025	43716
710.433	43827
710.887	43678
711.295	43613
711.748	43554
712.155	43515
712.607	43577
713.014	43450
713.466	43368
713.872	43389
714.323	43260
714.774	42939
715.179	42982
715.629	42914
716.034	42567
716.483	42478
716.888	42489
717.336	42724
717.74	42587
718.188	42259
718.591	42132
719.039	42132
719.441	42025
719.888	41912
720.29	41796
720.737	41762
721.138	41556
721.584	41558
722.029	41566
722.43	41413
722.874	41151
723.274	41057
723.718	41021
724.118	40848
724.561	40775
724.96	40835
725.403	40783
725.801	40612
726.244	40721
726.641	40614
727.083	40231
727.48	40250
727.921	40252
728.362	40217
728.758	40208
729.199	39885
729.594	39792
730.034	39740
730.429	39786
730.868	39726
731.263	39756
731.701	39671
732.095	39623
732.533	39662
732.926	39501
733.363	39396
733.756	39431
734.193	39326
734.585	39242
735.021	39120
735.457	39116
735.848	39269
736.283	39188
736.674	39031
737.109	38911
737.499	38896
737.933	38994
738.323	39022
738.756	39114
739.145	39067
739.578	38821
739.967	38858
740.399	38908
740.787	38856
741.218	38690
741.649	38866
742.037	38750
742.467	38892
742.854	39026
743.284	39115
743.671	38917
744.1	38798
744.486	38783
744.914	38707
745.3	38692
745.728	38553
746.113	38481
746.54	38269
746.924	38221
747.351	38493
747.735	38292
748.161	38002
748.587	37986
748.97	38081
749.395	38085
749.778	37748
750.202	37694
750.584	37748
751.008	37605
751.39	37546
751.813	37497
752.194	37478
752.617	37445
752.998	37516
753.42	37393
753.8	37171
754.221	37248
754.643	37305
755.022	37266
755.443	37311
755.821	37231
756.241	37023
756.619	37062
757.039	36952
757.417	36918
757.836	36790
758.213	36807
758.631	36898
759.007	36854
759.425	36893
759.801	36861
760.219	36844
760.594	36652
761.011	36543
761.427	36498
761.802	36465
762.218	36572
762.592	36446
763.007	36319
763.38	36286
763.795	36301
764.168	36211
764.582	36157
764.955	36153
765.368	36295
765.74	36228
766.153	36219
766.525	35972
766.937	36314
767.349	36187
767.72	36063
768.131	35893
768.502	35961
768.913	35911
769.282	35993
769.693	35928
770.062	36015
770.472	35755
770.84	35936
771.249	35729
771.618	35723
772.026	35814
772.394	35948
772.802	35615
773.169	35595
773.577	35727
773.984	35699
774.35	35788
774.757	35695
775.123	35624
775.529	35624
775.894	35583
776.3	35596
776.664	35766
777.069	35611
777.434	35575
777.838	35332
778.202	35448
778.606	35443
778.969	35395
779.372	35465
779.775	35478
780.138	35379
780.54	35344
780.902	35372
781.304	35236
781.666	35154
782.067	35274
782.428	35262
782.829	35146
783.189	35103
783.59	34985
783.95	34918
784.349	34974
784.709	34905
785.108	34964
785.467	34939
785.866	34630
786.264	34871
786.622	35063
787.02	34895
787.378	34681
787.775	34899
788.132	34836
788.529	34851
788.885	34826
789.281	34481
789.638	34772
790.033	34786
790.389	34759
790.784	34554
791.139	34682
791.534	34530
791.928	34673
792.282	34455
792.676	34395
793.03	34609
793.423	34454
793.777	34414
794.169	34521
794.522	34450
794.914	34278
795.267	34185
795.658	34302
796.01	34232
796.401	34281
796.753	34195
797.143	34053
797.533	34004
797.884	34001
798.274	33991
798.624	34060
799.013	34133
799.363	34082
799.751	34013
800.101	33912
800.489	33889
800.837	33913
801.225	34045
801.573	33873
801.96	33682
802.308	33904
802.694	33923
803.042	33885
803.428	33656
803.813	33450
804.16	33857
804.545	33628
804.891	33800
805.275	33587
805.621	33432
806.005	33568
806.35	33495
806.734	33681
807.079	33540
807.461	33516
807.806	33460
808.188	33333
808.532	33487
808.914	33547
809.295	33569
809.638	33569
810.019	33430
810.362	33315
810.742	33458
811.085	33429
811.465	33303
811.806	33429
812.186	33359
812.527	33261
812.906	33332
813.246	33045
813.625	33023
813.965	32903
814.343	32943
814.683	33074
815.06	33078
815.437	33095
815.776	32895
816.153	33208
816.491	33240
816.867	33157
817.206	33035
817.581	33135
817.919	33051
818.294	32965
818.631	33006
819.005	32864
819.342	32960
819.716	32874
820.052	32844
820.426	32924
820.799	32879
821.135	32729
821.507	32655
821.842	32767
822.214	32883
822.549	32778
822.921	32695
823.255	32749
823.626	32702
823.96	32859
824.33	33113
824.664	32865
825.034	32625
825.366	32696
825.736	32600
826.068	32647
826.437	32860
826.806	32904
827.138	32774
827.506	32569
827.837	32564
828.205	32561
828.536	32816
828.903	32628
829.233	32547
829.6	32542
829.93	32668
830.296	32611
830.626	32608
830.991	32712
831.32	32660
831.685	32627
832.05	32620
832.379	32548
832.743	32450
833.071	32223
833.435	32567
833.762	32767
834.126	32607
834.453	32369
834.815	32483
835.142	32622
835.504	32579
835.83	32565
836.192	32634
836.518	32403
836.879	32428
837.204	32434
837.565	32567
837.926	32569
838.25	32489
838.611	32429
838.935	32410
839.294	32405
839.618	32334
839.977	32432
840.3	32562
840.659	32491
840.981	32518
841.34	32482
841.662	32371
842.02	32409
842.341	32553
842.698	32442
843.055	32398
843.376	32342
843.733	32184
844.054	32327
844.41	32117
844.73	32402
845.085	32195
845.405	32158
845.76	32305
846.079	32452
846.434	32375
846.753	32269
847.107	32217
847.425	32237
847.779	32284
848.097	32310
848.45	32267
848.802	32150
849.12	32231
849.472	32156
849.789	32255
850.141	32232
850.457	32084
850.809	32063
851.125	32230
851.475	32148
851.791	32022
852.141	32183
852.456	32348
852.806	32184
853.121	32066
853.47	32143
853.82	32325
854.134	32294
854.482	32376
854.796	32563
855.144	32616
855.457	32751
855.805	32789
856.118	32829
856.465	33133
856.777	33221
857.124	33051
857.436	33186
857.782	32831
858.094	33055
858.44	32836
858.751	32677
859.096	32702
859.441	32566
859.751	32325
860.096	32153
860.406	32101
860.75	32096
861.06	32091
861.403	32111
861.712	32052
862.055	31894
862.364	31859
862.707	31865
863.015	32079
863.357	31765
863.665	31865
864.007	31542
864.348	31801
864.656	31854
864.997	31779
865.303	31855
865.644	31861
865.95	31864
866.29	31704
866.596	31756
866.936	31779
867.242	31734
867.581	31745
867.886	31735
868.225	31787
868.529	31794
868.867	31976
869.172	31949
869.509	31791
869.847	31697
870.151	31805
870.488	31885
870.791	31795
871.127	31790
871.43	31731
871.766	31699
872.069	31747
872.404	31776
872.706	31608
873.042	31558
873.343	31702
873.678	31843
873.979	31976
874.313	31790
874.647	31876
874.948	31939
875.281	31873
875.581	31719
875.915	31862
876.214	31937
876.547	31868
876.846	31855
877.178	31832
877.477	31723
877.809	31770
878.107	31839
878.439	31765
878.737	31741
879.068	31825
879.365	31723
879.696	31525
880.026	31677
880.323	31709
880.653	31792
880.949	31612
881.278	31768
881.574	31641
881.903	31630
882.199	31739
882.527	31726
882.823	31528
883.151	31424
883.446	31473
883.773	31449
884.068	31392
884.395	31474
884.721	31418
885.015	31152
885.342	31375
885.635	31243
885.961	31533
886.254	31198
886.58	31196
886.872	31363
887.197	31104
887.49	31060
887.814	31120
888.106	31143
888.43	31158
888.722	31139
889.045	31087
889.336	31023
889.66	30900
889.983	30893
890.273	31012
890.596	30876
890.886	30890
891.208	30627
891.497	30845
891.819	30627
892.108	30695
892.43	30832
892.719	30856
893.039	30763
893.328	30745
893.648	30716
893.936	30607
894.256	30710
894.576	30735
894.863	30753
895.183	30682
895.47	30714
895.788	30602
896.075	30538
896.393	30632
896.68	30601
896.998	30530
897.284	30501
897.601	30547
897.887	30547
898.204	30470
898.489	30497
898.805	30667
899.09	30706
899.406	30391
899.722	30379
900.006	30420
900.322	30400
900.606	30393
900.921	30403
901.204	30344
901.519	30425
901.802	30434
902.116	30344
902.399	30404
902.712	30521
902.995	30392
903.308	30288
903.59	30474
903.903	30260
904.215	30509
904.497	30404
904.809	30446
905.09	30505
905.402	30247
905.682	30255
905.993	30407
906.274	30534
906.585	30527
906.864	30342
907.175	30238
907.454	30354
907.764	30518
908.043	30638
908.353	30345
908.631	30618
908.941	30567
909.25	30618
909.528	30671
909.836	30688
910.114	30601
910.422	30584
910.699	30593
911.007	30501
911.284	30541
911.591	30579
911.868	30816
912.175	30492
912.451	30622
912.757	30445
913.033	30516
913.339	30575
913.645	30591
913.92	30520
914.226	30409
914.5	30392
914.805	30425
915.08	30361
915.384	30332
915.658	30309
915.963	30282
916.236	30420
916.54	30424
916.813	30266
917.117	30117
917.389	30264
917.692	30280
917.965	30157
918.267	30121
918.57	30180
918.842	30224
919.144	30177
919.415	30103
919.717	30048
919.988	30142
920.289	30160
920.56	30106
920.86	30161
921.131	30363
921.431	30301
921.701	30205
922.001	30238
922.271	30174
922.57	30146
922.869	30329
923.139	30281
923.437	30250
923.706	30333
924.004	30154
924.273	30176
924.571	30463
924.839	30566
925.136	30473
925.404	30426
925.701	30568
925.969	30718
926.265	30493
926.532	30267
926.829	30344
927.095	30472
927.391	30411
927.687	30499
927.953	30446
928.248	30336
928.514	30477
928.809	30605
929.074	30519
929.369	30475
929.634	30501
929.928	30521
930.192	30650
930.486	30504
930.75	30449
931.044	30654
931.307	30520
931.6	30628
931.893	30792
932.156	30773
932.449	30776
932.711	30925
933.003	31021
933.266	31160
933.557	30977
933.82	31113
934.111	31314
934.373	31425
934.663	31439
934.925	31454
935.215	31431
935.476	31353
935.766	31392
936.056	31588
936.316	31577
936.606	31500
936.866	31495
937.155	31491
937.415	31377
937.703	31354
937.963	31297
938.251	31203
938.51	31268
938.798	31298
939.057	31111
939.344	31103
939.602	31292
939.889	31252
940.147	31186
940.434	31194
940.72	31192
940.978	31091
941.264	31028
941.521	30930
941.807	30769
942.063	30749
942.349	30904
942.605	30826
942.89	30814
943.146	30679
943.43	30869
943.686	30924
943.97	30722
944.226	30760
944.509	30818
944.793	30818
945.047	30773
945.331	30651
945.585	30795
945.868	30889
946.122	30771
946.404	30864
946.658	30783
946.94	30801
947.193	30776
947.475	30745
947.728	30673
948.009	30628
948.262	30752
948.543	30777
948.795	30560
949.075	30538
949.356	30260
949.607	30555
949.887	30466
950.139	30383
950.418	30321
950.669	30162
950.948	30054
951.199	30056
951.478	29817
951.728	29842
952.007	29975
952.257	30061
952.535	29901
952.785	29864
953.062	29862
953.339	29836
953.589	29760
953.866	29734
954.115	29901
954.391	29795
954.64	29696
954.916	29529
955.164	29324
955.44	29514
955.688	29530
955.963	29435
956.211	29410
956.486	29382
956.733	29294
957.008	29324
957.255	29250
957.529	29143
957.803	29211
958.05	28983
958.323	28859
958.569	28887
958.843	28917
959.088	28946
959.361	28946
959.607	28719
959.879	28680
960.124	28514
960.397	28650
960.641	28560
960.913	28548
961.158	28573
961.429	28599
961.7	28534
961.944	28349
962.215	28264
962.459	28444
962.729	28585
962.972	28361
963.242	28340
963.485	28289
963.755	28277
963.998	28307
964.267	28303
964.509	28258
964.778	28279
965.02	28386
965.289	28322
965.531	28276
965.799	28295
966.067	28363
966.308	28335
966.576	28296
966.816	28254
967.084	28177
967.324	28137
967.591	28019
967.831	28379
968.098	28137
968.338	28107
968.604	28015
968.843	28046
969.109	28062
969.348	27988
969.614	27901
969.879	27767
970.118	28038
970.383	28068
970.621	28027
970.886	28070
971.124	27974
971.388	27968
971.626	27978
971.889	27896
972.127	27842
972.39	27813
972.627	27967
972.89	27828
973.127	27899
973.39	28016
973.626	27961
973.889	27882
974.151	27819
974.387	27741
974.649	27712
974.884	27499
975.146	27746
975.381	27715
975.642	27725
975.877	27632
976.138	27629
976.372	27725
976.633	27800
976.867	27763
977.127	27594
977.361	27807
